att1,att2,att3,att4,att5,att6,att7,att8,att9,att10,att11,att12,att13,att14,att15,att16,att17,att18,att19,att20,att21,att22,att23,att24,att25,att26,att27,att28,att29,att30,att31,att32,att33,att34,att35,att37,att38,att39,att40,att41,att42,att43,att44,att45,att46,att47,att48,att49,att50,att51,att52,att53,att54,att55,att56,att57,att58,att59,att60,att61,att62,att63,att64,att65,att66,att67,att68,att69,att70,att71,att72,att73,att74,att75,att76,att77,att78,att79,att80,att81,att82,att83,att84,att85,att86,att87,att88,att89,att90,att91,att92,att93,att94,att95,att96,att97,att98,att99,att100,att101,att102,att103,att104,att105,att106,att107,att108,att109,att110,att111,att112,att113,att114,att115,att116,att117,att118,att119,att120,att121,att122,att123,att124,att125,att126,att127,att128,att129,att130,att131,att132,att133,att134,att135,att136,att137,att138,att139,att140,output
0.44278411,-1.066953,-2.4671624,-3.8390653,-4.3261853,-4.0210579,-3.0751277,-2.0004937,-1.6978492,-1.2647637,-0.6160334,-0.48015516,-0.44659527,-0.43347767,-0.46708432,-0.41974497,-0.4328108,-0.40580346,-0.41855637,-0.34058121,-0.47399973,-0.46618512,-0.47132589,-0.52798304,-0.45604561,-0.44567165,-0.52331325,-0.57502759,-0.64065765,-0.63480846,-0.60058615,-0.72410843,-0.76356903,-0.83253715,-0.8614266,-0.85035207,-0.89941687,-0.89960014,-0.87474466,-0.88077673,-0.77704831,-0.76958483,-0.72290162,-0.61188179,-0.48310202,-0.2969766,-0.22651267,-0.19168858,-0.095742784,-0.090732435,0.073788748,0.064827332,0.000636518,0.036734189,0.037556815,0.123401,0.04158711,0.10865475,0.076448403,0.049135024,0.13490147,0.14021697,0.152805,0.21859318,0.18398813,0.22653597,0.24174821,0.20061495,0.28746795,0.32712363,0.40752934,0.43590286,0.5296286,0.47581093,0.56407995,0.57958157,0.60710857,0.58698635,0.55156957,0.51891381,0.41375016,0.4637784,0.42737082,0.46991161,0.43492279,0.36759591,0.40108485,0.51090294,0.49142225,0.4673719,0.45507543,0.3900091,0.38907457,0.5590257,0.54631466,0.73840389,0.90475741,1.0140226,1.2462599,1.4398935,1.5842991,1.7964132,1.8854339,1.8751712,1.7567555,1.6989284,1.5103593,1.2670082,1.0323827,0.73570514,0.42606959,0.16380136,-0.089732948,-0.15949695,-0.19700282,-0.1184885,-0.14292837,-0.16336387,-0.12609261,0.006445089,-0.067906799,-0.14068914,-0.084860464,-0.072624492,0.000143187,-0.12204896,-0.090078571,0.15496548,0.47477035,0.95468299,1.0379432,0.93913802,0.9672378,1.0727505,0.99477238,0.89114332,1.2856871,1.5883707,1.194063,-0.38892728,1
1.541284,1.3275269,-0.38128792,-1.8536548,-3.0805063,-3.8510304,-3.4420531,-2.4717001,-1.737634,-1.774059,-0.80410321,-0.18606586,-0.30903222,-0.33885607,-0.28582127,-0.25558942,-0.28670025,-0.26622842,-0.40717682,-0.35119253,-0.31526646,-0.40748989,-0.51769749,-0.55317644,-0.60128475,-0.53865715,-0.59845489,-0.68365714,-0.76948635,-0.81760442,-0.82691899,-0.88086958,-0.87552935,-1.0009356,-1.0445998,-1.0438644,-1.2214718,-1.1925816,-1.2529271,-1.1843127,-1.1681537,-1.1296315,-1.1981792,-1.0368187,-0.8822651,-0.9021955,-0.71009009,-0.64286471,-0.49638535,-0.46472762,-0.32245255,-0.21095983,-0.30517736,-0.14680215,-0.23828586,-0.10381096,0.012192928,-0.058606491,-0.10543075,0.008731233,0.047482028,-0.009025427,0.066758221,0.11368789,0.14402441,0.12724662,0.17172405,0.29921522,0.19537529,0.21758064,0.28425022,0.38676293,0.31286625,0.44194915,0.42236911,0.50721026,0.43216463,0.5233213,0.51700691,0.45316068,0.51678673,0.64005304,0.54828406,0.4583261,0.55643676,0.48460912,0.45041778,0.48275252,0.4237453,0.3999642,0.43681926,0.40968925,0.37118353,0.48112188,0.32710219,0.27198073,0.34501972,0.3961021,0.45994253,0.52379262,0.85524567,1.0994861,1.2289642,1.3020263,1.4555612,1.7763204,2.1199072,2.0941184,1.9060263,1.8453,1.6684146,1.4726943,1.1563358,0.85593031,0.33841618,-0.037092803,-0.16393203,-0.14847709,-0.16327333,-0.13336702,-0.1274147,-0.16439869,-0.23700254,-0.22731887,-0.17819874,-0.11291685,-0.10046352,-0.24230872,-0.1364223,-0.010283176,0.12943973,0.50735458,0.96191332,0.91460997,1.6788641,1.9822739,1.9905861,1.3681258,0.9730102,1.5052661,1
-0.82975204,-3.500824,-4.0468026,-4.4821725,-4.0067489,-2.7849862,-1.8147319,-1.586727,-0.73663574,-0.22871429,-0.32004084,-0.27362298,-0.13031146,-0.16926698,-0.32729799,-0.27820627,-0.19127369,-0.29751285,-0.30239199,-0.32387977,-0.31250831,-0.37215134,-0.36585744,-0.42640429,-0.45034488,-0.50070292,-0.4535552,-0.50826614,-0.56644984,-0.64820184,-0.66626877,-0.68011762,-0.73075985,-0.77785381,-0.79751431,-0.78256686,-0.7655048,-0.69238949,-0.61236171,-0.675649,-0.62867032,-0.48669549,-0.37375584,-0.37709868,-0.29462777,-0.21711679,-0.077653161,-0.15039593,-0.094030705,-0.063301318,-0.11110642,-0.042134305,-0.045617936,0.030101987,0.044388999,0.090397606,0.14047589,0.22321768,0.11692697,0.17184323,0.26463414,0.21543866,0.26065513,0.29121969,0.2449525,0.36965125,0.40368513,0.51990613,0.51030796,0.56624054,0.57684359,0.58014753,0.57064935,0.49701228,0.52952931,0.56414229,0.53967463,0.4433671,0.51084744,0.4351302,0.43021132,0.36457996,0.37800495,0.40040321,0.36150135,0.40603439,0.30239133,0.35804403,0.31423741,0.26840388,0.3251914,0.31064889,0.31714289,0.31596166,0.31116938,0.32963074,0.39651703,0.54773981,0.76335899,0.98537662,1.214937,1.4103502,1.5813384,1.7876363,2.0993167,2.0796225,2.0779239,1.9077355,1.6563669,1.4381929,1.1574368,0.91986032,0.38266156,0.007079307,-0.15163982,-0.267765,-0.26717609,-0.26305156,-0.29785386,-0.25815609,-0.22549984,-0.33212259,-0.24480595,-0.29968861,-0.19634199,-0.25407494,-0.14169529,-0.19804562,-0.19083581,0.12695517,0.64802884,1.1234787,1.1774739,1.0411789,0.74207038,0.44468511,0.52465764,0.66457532,1.4112554,-0.55446805,1
0.072052286,-3.1618602,-4.3766487,-4.4056537,-3.9883391,-3.0684561,-1.5883072,-1.2850434,-0.80524286,0.053837206,0.11090128,0.10592924,0.17499052,0.06298869,0.17968258,0.041846912,0.15723758,0.000668843,-0.001648152,0.010744365,-0.084799106,-0.11939385,-0.12488091,-0.12400707,-0.30332584,-0.32226168,-0.34174147,-0.45079458,-0.55805524,-0.56169909,-0.64789756,-0.74366444,-0.78378126,-0.80655299,-0.88029888,-0.78423045,-0.89003844,-0.87272154,-0.78162928,-0.76177296,-0.64025441,-0.50502505,-0.53808073,-0.42660098,-0.2315774,-0.070671064,0.014320712,-0.033705454,-0.020206563,0.060808914,0.11494938,0.18553935,0.1309426,0.19123449,0.19254353,0.1930272,0.15617831,0.14966105,0.21103054,0.25562309,0.24464742,0.12961965,0.16198249,0.21213949,0.26874937,0.32442398,0.41654501,0.42065255,0.30609255,0.45450423,0.51781495,0.49453103,0.49738103,0.57639643,0.56770305,0.53696588,0.52186432,0.55716667,0.62536021,0.4361937,0.38662418,0.40872325,0.56824597,0.42839799,0.42922089,0.36871178,0.41781201,0.35164082,0.23300471,0.29700589,0.21817758,0.14508628,0.29729402,0.29491051,0.18754746,0.14652073,0.39420139,0.58050531,0.86750964,1.0810531,1.1631134,1.3167857,1.5927909,1.9693941,1.9661396,1.909813,1.7913506,1.4872761,1.2393161,0.97114951,0.65603942,0.21172949,-0.19679844,-0.4447125,-0.63792445,-0.59028202,-0.57320124,-0.61590826,-0.63005752,-0.57157673,-0.58791204,-0.66139933,-0.61915723,-0.59649355,-0.66367995,-0.67563102,-0.60535948,-0.54099022,-0.48435401,-0.14524047,0.67281179,0.83120044,0.94552193,1.1425801,1.2349437,1.0937273,0.90188318,0.86043449,1.7822697,0.99160932,1
-1.1492478,-1.7957682,-2.4190232,-3.0521047,-3.5873567,-4.0257426,-3.6208057,-2.9458988,-1.9115537,-1.3895031,-1.0531837,-0.37295308,-0.30061135,-0.23683836,-0.26913088,-0.19434134,-0.18738529,-0.39811844,-0.14897599,-0.2990155,-0.31003043,-0.07320989,-0.12238659,-0.22468576,-0.29479378,-0.12547159,-0.14235609,-0.30313511,-0.41316767,-0.20269293,-0.080527014,-0.065873184,-0.10923024,-0.31085227,-0.13928956,-0.22222095,-0.11191599,-0.10970781,-0.11410088,-0.19988229,-0.14880649,0.04641599,-0.068685338,0.11525849,0.20710926,0.2166756,0.22614141,0.20746083,0.047984956,0.075349818,0.231959,0.16503723,0.27446274,0.23619505,0.08409309,-0.070733264,0.16151412,0.20279459,0.045291356,0.019614376,-0.047958425,0.14232205,0.24469932,-0.038948866,-0.28413083,0.080542547,0.19694807,-0.00659189,0.018907375,0.10339661,0.16927147,0.14937149,0.28749318,0.2798426,0.19336898,0.26381914,0.3911304,0.45904859,0.32917068,0.32226426,0.52587758,0.57730564,0.46459023,0.4470983,0.48224658,0.52297626,0.505886,0.41737146,0.40906129,0.3926003,0.50410545,0.40281232,0.41959513,0.57692696,0.73859978,0.72055644,0.87226895,0.93121038,0.95694435,1.2256862,1.4968095,1.7935425,1.8642908,1.7895733,1.6992091,1.6950485,1.5677066,1.3742252,1.0581024,0.83116314,0.62474545,0.26004793,0.045557706,-0.06376934,-0.15825981,-0.30747837,-0.42887096,-0.30194547,-0.046238803,0.037920457,-0.15676275,-0.04877871,-0.1659559,-0.3019118,-0.18960777,-0.23060409,-0.1343002,0.025520765,0.47745007,1.2752076,1.8373905,1.8928268,1.771121,1.3291648,0.43110257,-0.84046099,-1.6759767,-1.7280304,-1.2043668,-1.7841386,1
1.1769864,-0.65701606,-2.6056676,-3.8086859,-4.6396123,-3.7415395,-2.2569379,-1.5824809,-1.2123269,-0.058129433,0.060900337,0.039688119,0.006353334,0.062795277,0.11579255,0.013627326,0.013104946,-0.016106851,-0.09011182,-0.19447545,-0.00486431,-0.15535039,-0.28662198,-0.28124769,-0.40269559,-0.45460901,-0.50376691,-0.63795097,-0.68374207,-0.52421697,-0.76629634,-0.93754758,-1.0088709,-1.0202331,-1.1404868,-1.0734651,-1.1792002,-1.0489669,-1.062967,-1.0624942,-0.97992194,-0.92753266,-0.74400217,-0.58400969,-0.60888532,-0.45626188,-0.21777212,-0.22208422,-0.12014758,-0.059249798,-0.086523615,-0.00834019,-0.10301199,0.017319241,-0.068723242,-0.035460317,0.063161569,0.061628404,0.13722864,0.19511794,0.13470301,0.10409743,0.17291849,0.171033,0.30363023,0.24237057,0.39377894,0.4874629,0.60970538,0.67608249,0.67444996,0.56976283,0.70230584,0.68281479,0.77103915,0.7786988,0.64085439,0.73253647,0.71725533,0.70462113,0.69098814,0.58798871,0.65830368,0.56195826,0.54447836,0.51238526,0.44978477,0.45308239,0.4770694,0.31399757,0.4095878,0.35747161,0.34001917,0.28200811,0.30629258,0.23582433,0.27813134,0.23338588,0.35082688,0.39040823,0.41132885,0.85481778,1.1915262,1.4353163,1.4401626,1.6204056,1.8608515,2.2050359,2.1171506,2.0498671,1.7224389,1.3995203,1.1770942,0.79536,0.56862648,0.12373518,-0.39256705,-0.40704314,-0.43157529,-0.54907598,-0.62048078,-0.53318825,-0.47204177,-0.45508714,-0.43696976,-0.49716706,-0.55205699,-0.58648202,-0.58091027,-0.56726251,-0.39044231,-0.37419228,0.19002537,1.0000453,1.139625,1.2863276,1.1168049,1.2502928,0.77352234,-0.2305444,1
-0.22834853,-2.2628779,-3.3788697,-4.3368007,-4.392429,-3.50185,-2.2532555,-1.7474345,-1.4082702,-0.5716136,-0.33085616,-0.33677196,-0.26542312,-0.3008065,-0.30018242,-0.24047835,-0.20566761,-0.2327389,-0.28498938,-0.30185573,-0.38164208,-0.42044701,-0.40999425,-0.421283,-0.40364729,-0.45180363,-0.5027427,-0.58554929,-0.62740108,-0.6329935,-0.69083345,-0.75313037,-0.7360911,-0.73875031,-0.94551909,-0.84847217,-0.80214301,-0.82295942,-0.88117796,-0.85758051,-0.78562412,-0.77970706,-0.61954298,-0.46030498,-0.41009556,-0.29590868,-0.17254778,-0.059433663,-0.05700073,0.025752898,0.085047801,0.094270726,0.057510564,0.074963744,0.040307833,-0.021758429,0.088061025,0.086413851,0.15750477,0.22796172,0.079406352,0.15007865,0.21804847,0.17399542,0.22927756,0.31006797,0.39619256,0.40679162,0.43223113,0.51875446,0.48288592,0.64463702,0.54189118,0.6689774,0.67184772,0.66988462,0.63504986,0.628076,0.57633931,0.58797111,0.66977053,0.52183691,0.51607842,0.52621629,0.542702,0.49070869,0.44047001,0.49838341,0.42889745,0.39060865,0.30151933,0.37801488,0.35571953,0.37510013,0.44391785,0.44054101,0.51291208,0.55933355,0.80216637,1.0827527,1.1742112,1.362145,1.5105203,1.744175,2.0465619,2.0028931,2.1276537,1.7526075,1.5640601,1.3663385,1.1265928,0.82018035,0.39976286,0.07815672,-0.14293667,-0.16183541,-0.19750918,-0.084306641,-0.15159421,-0.16749644,-0.1905306,-0.17849336,-0.13727521,-0.12570145,-0.12094001,-0.070890993,-0.074161392,-0.069365654,0.13348062,0.60000163,1.1609032,1.0446447,0.94292366,0.88683674,0.56570506,0.16328458,0.24850591,0.63823249,0.92907416,-1.2966586,1
-1.8972932,-3.5231948,-4.2171096,-4.5202632,-3.9192998,-2.9885005,-1.6561838,-1.1093295,-0.92645734,-0.42436617,-0.32909097,-0.17336709,-0.17572272,-0.23749269,-0.22085536,-0.064921908,-0.081213124,-0.28825824,-0.30623611,-0.23930287,-0.20871747,-0.33682439,-0.27142046,-0.28350951,-0.31493497,-0.41098144,-0.43528793,-0.47273629,-0.41736961,-0.44797062,-0.45213265,-0.5436399,-0.68404718,-0.66177163,-0.60848913,-0.61666301,-0.45283298,-0.53567504,-0.5649496,-0.50909104,-0.54847105,-0.39207034,-0.34320667,-0.11308943,0.076648458,-0.17621911,-0.16734137,0.14227862,0.016301436,0.018832391,0.029315372,0.045597705,0.093276351,0.002552916,0.081337208,0.23570449,0.017635839,0.1048791,0.13829666,-0.062363763,-0.043107282,0.044711713,0.13484115,0.10396299,0.10294088,0.16577936,0.099191147,0.27720786,0.34359961,0.21498279,0.26849081,0.55597708,0.47912976,0.62289278,0.6617318,0.37006996,0.33170274,0.59379564,0.65315957,0.56555381,0.6080421,0.65877326,0.64049152,0.46449932,0.42450528,0.52794288,0.47768037,0.51206949,0.67429048,0.49108983,0.25518025,0.3050069,0.52989692,0.57933824,0.48560288,0.56172015,0.67427009,0.84859763,0.97419715,1.0972325,1.499384,1.7055642,1.7918746,1.9322801,1.8209036,1.7162508,1.5833912,1.3472824,1.0361699,0.81906776,0.68707777,0.27952002,-0.078181022,-0.21538626,-0.19868389,-0.094224205,-0.21969419,-0.24350356,-0.21898932,-0.30626484,-0.26587587,-0.19105794,-0.2539462,-0.25401284,-0.1889422,-0.14575042,-0.18869653,-0.18265359,0.16531224,0.57656992,0.9630985,1.1185093,1.5920596,1.8599903,1.4317164,0.6131455,-0.075239687,-0.46574708,-0.48311744,-1.2786334,1
0.44198855,-1.6549005,-3.4018003,-4.5515569,-4.7694219,-4.0873202,-2.9432257,-1.6896159,-1.3888295,-0.64836427,-0.086811508,-0.047263014,-0.078580133,-0.060816991,0.11684737,-0.08085752,0.004049498,-0.034328865,0.014035241,-0.014091414,-0.066619095,-0.1569472,-0.1170056,-0.11933597,-0.15294478,-0.19713743,-0.26630595,-0.295495,-0.36137099,-0.45728942,-0.65735146,-0.62531242,-0.59431749,-0.71050455,-0.66267474,-0.63205545,-0.68348108,-0.77915158,-0.67402708,-0.60747092,-0.49612993,-0.49373284,-0.36501465,-0.24259924,-0.17684464,-0.15867473,-0.02367377,-0.014267028,0.050436066,0.10962416,0.085629859,0.10610566,0.12032755,0.13428472,0.059670296,0.096121065,0.051561902,0.12985732,0.20068965,0.15194698,0.18505504,0.26123164,0.22154659,0.15679693,0.12190689,0.33070941,0.33078394,0.38335774,0.39893224,0.45949172,0.45275149,0.47608586,0.44299637,0.5803239,0.44837496,0.4597396,0.41257758,0.5358888,0.53836685,0.44194906,0.48181643,0.35905629,0.40824402,0.38701496,0.4280472,0.37425591,0.29948175,0.41175089,0.36789012,0.35261929,0.33892883,0.31316048,0.32219069,0.37521631,0.39074329,0.6244018,0.77503315,0.97359839,1.0671488,1.2691996,1.4332599,1.6535033,1.8413704,1.7906429,1.7074461,1.6283286,1.4237053,1.2828333,1.0648624,0.87656706,0.55381528,0.071430825,-0.18646112,-0.27202531,-0.30748558,-0.31184293,-0.32477876,-0.34222067,-0.24023786,-0.29364079,-0.3044844,-0.27269511,-0.27400977,-0.36185133,-0.24497219,-0.39255725,-0.32647697,-0.075013723,0.1739922,0.60849109,0.78048389,0.81837824,0.8545484,0.87749352,0.79063332,0.64329826,0.86462716,0.99958727,0.32037126,-2.0352372,1
-1.4611508,-3.0446536,-3.6134638,-3.9305855,-4.0676916,-3.7640599,-3.1631535,-2.154579,-1.2912172,-1.096458,-0.64907639,-0.14649915,-0.11822546,-0.10604497,-0.078754731,-0.054853003,-0.13453208,-0.10715288,-0.035778669,0.067300395,0.032126248,-0.078709431,-0.088686896,-0.14451117,-0.049063409,-0.005901257,-0.12337529,-0.10016228,-0.056084325,-0.10154624,-0.11508855,-0.10749684,-0.18996742,-0.12207487,-0.082964974,-0.10304922,-0.10640041,-0.038166606,-0.064443861,-0.095971734,-0.071693975,0.049661937,0.082779257,0.10190642,0.13139824,0.18897527,0.22929426,0.25122816,0.28179086,0.21011915,0.19570645,0.14914383,0.10233904,0.072421697,-0.036464914,-0.01046784,0.032615844,0.02805301,0.14910263,0.058940314,0.12030418,0.13752711,0.020480711,-0.030890085,0.049323864,0.090896025,0.005922381,0.12299545,0.065482178,0.15345318,0.10877649,0.18590266,0.20965489,0.29002411,0.31515969,0.29683779,0.38939893,0.34232031,0.40311722,0.48523763,0.50949172,0.53824731,0.56270839,0.5572532,0.48947697,0.53473448,0.46781042,0.47102241,0.48994294,0.54139512,0.55207339,0.66800945,0.74134253,0.70351934,1.0579605,1.1364202,1.3052435,1.3832431,1.6614668,1.9037667,1.8681048,1.7692061,1.650963,1.4179762,1.3137559,1.129764,0.95318096,0.85628176,0.46087582,0.093870143,-0.12703731,-0.3295351,-0.31306238,-0.11473454,-0.083096936,-0.18464122,-0.12869682,-0.21926428,-0.18631243,-0.24407287,-0.29322572,-0.15684014,-0.10310701,-0.13386881,-0.095946264,-0.07766245,0.017634306,0.4665379,0.99100834,1.2394918,1.1627398,1.016781,0.68319276,0.15260158,-0.38004219,-0.70673432,-0.50963315,-0.60086301,-1.2560252,-2.5412984,1
0.11221916,-1.9383937,-3.4110125,-4.2565552,-4.0315842,-3.1612936,-1.9996181,-1.6354646,-1.4034104,-0.65139189,-0.24279128,-0.35443742,-0.35367731,-0.30492719,-0.384635,-0.4217178,-0.35534736,-0.34544872,-0.31904777,-0.39816224,-0.42395399,-0.42550886,-0.4898904,-0.53414556,-0.5426522,-0.57459429,-0.66411148,-0.69041125,-0.68809264,-0.84040094,-0.91612611,-0.88611045,-0.93299384,-0.93529968,-0.97661029,-1.0484684,-1.077885,-0.98958902,-0.9285663,-1.0034747,-0.85455727,-0.71564078,-0.71529529,-0.63707549,-0.4561859,-0.37324478,-0.26248686,-0.12630282,-0.13199387,-0.05946869,0.009413497,0.005000926,0.023568518,0.012454128,0.064145221,0.062804819,0.19780911,0.1517869,0.14410064,0.12614545,0.17148868,0.19421058,0.20026545,0.14137743,0.15694677,0.2411706,0.22677012,0.39706448,0.31959653,0.50684297,0.45551881,0.57712176,0.657666,0.62451203,0.71318661,0.66672051,0.69827637,0.72562439,0.83398352,0.67005558,0.69544017,0.66400039,0.65794283,0.60620812,0.60769791,0.51682741,0.49226806,0.45045596,0.46315852,0.55328335,0.55653237,0.51584011,0.50672135,0.48564549,0.52828098,0.66424212,0.8658378,0.94404774,1.0945576,1.2111566,1.391357,1.629663,1.8141852,1.8853823,1.8682042,1.8068767,1.5580562,1.3833732,1.1129199,0.96415293,0.66627989,0.22070853,0.024716646,-0.20689058,-0.3324159,-0.36183946,-0.28450473,-0.2926499,-0.28323958,-0.32475672,-0.31696184,-0.32671902,-0.23764949,-0.23536469,-0.30338352,-0.20518551,-0.24304639,-0.21987482,-0.040744296,0.16281224,0.84317973,0.92096124,0.66799582,0.83176882,0.89367377,0.92988111,0.8660529,1.0585941,1.6702873,1.7462047,1
-1.7278123,-4.2174129,-4.1944345,-4.4075379,-4.1565087,-3.3405499,-1.9951837,-1.197964,-1.0794073,-0.51270104,-0.14611349,-0.14358175,-0.16701816,-0.15968102,-0.21059426,-0.087540456,-0.12062575,-0.16087049,-0.10227395,-0.27139956,-0.24782018,-0.17529376,-0.21662626,-0.18192029,-0.25877397,-0.23521832,-0.28535952,-0.33066956,-0.25466169,-0.35024312,-0.33941664,-0.47907335,-0.4620637,-0.37751482,-0.45046461,-0.41908486,-0.46823525,-0.53879378,-0.3718654,-0.36294477,-0.29576039,-0.19275595,-0.16179473,-0.085641136,-0.12943839,0.1190398,0.10788768,0.091051932,0.23537424,0.083296709,0.14054598,0.17329193,0.1179596,0.1733764,0.2625504,0.21463629,0.18209868,0.16505211,0.1293568,0.12877529,0.26341774,0.2714188,0.25006399,0.283309,0.22027979,0.076756533,0.2089513,0.25712001,0.23654316,0.3021209,0.34255907,0.31250837,0.40907084,0.46690481,0.41491075,0.5531915,0.39764232,0.48349628,0.52950065,0.66375561,0.4553672,0.45935836,0.44832331,0.38050862,0.47535542,0.33537538,0.36970996,0.33750041,0.41728704,0.34908241,0.23482287,0.35709837,0.35535488,0.30056855,0.3528624,0.49824167,0.61452666,0.75663437,1.0592235,1.1873156,1.3853686,1.5596724,1.9643755,2.0068942,1.8256509,1.7955717,1.651719,1.4082535,1.1158201,0.79625935,0.40984432,0.16672583,-0.10422421,-0.34656697,-0.29483858,-0.28135124,-0.34350855,-0.36124634,-0.39642788,-0.3600825,-0.27978486,-0.3711579,-0.42309237,-0.23922297,-0.22202645,-0.26870674,-0.32331766,-0.29244319,-0.15031272,0.14295676,0.74673559,0.82246412,1.1066318,1.1668354,0.87613655,0.70468313,0.48039697,0.32851623,0.58797032,-0.93285781,1
-0.42549858,-2.2861194,-3.2557439,-3.9055688,-3.9759672,-3.6825651,-2.8423185,-1.8554443,-1.5387845,-1.2133678,-0.74082863,-0.47861665,-0.54533182,-0.39470515,-0.37337471,-0.35212069,-0.41181659,-0.38544889,-0.36484129,-0.38843971,-0.4673902,-0.45984599,-0.44488021,-0.41942016,-0.36956874,-0.45187432,-0.44808577,-0.51178979,-0.48578488,-0.4535301,-0.60737377,-0.59968288,-0.5481054,-0.62635762,-0.54779291,-0.55819246,-0.57749605,-0.55338229,-0.54701093,-0.47448341,-0.4860797,-0.41454549,-0.24341975,-0.26988604,-0.22091426,-0.21439274,-0.1358317,-0.01466543,-0.088611648,-0.028928855,0.006441703,-0.01484443,-0.021189797,0.014361809,-0.029217769,0.007064215,-0.002591378,0.041897936,0.12027087,0.072175049,0.064146819,0.10249156,0.086012708,0.15968137,0.15847248,0.12504666,0.14407689,0.21619516,0.29982484,0.29805675,0.38833725,0.42881797,0.45404783,0.51742959,0.50818155,0.57499494,0.64843966,0.61616033,0.49296565,0.57882539,0.6019131,0.52770585,0.54119769,0.57818738,0.49050447,0.41873479,0.3934291,0.48765218,0.44602331,0.41316686,0.44493046,0.46966969,0.53355359,0.58645379,0.76178281,0.86387484,0.97658134,1.0943079,1.3814584,1.713476,2.0481199,2.2095336,2.1783274,2.044617,1.8145239,1.7531953,1.4643097,1.0870633,0.74846249,0.34782758,0.10975053,-0.16432066,-0.1560625,-0.170934,-0.23139587,-0.17069949,-0.20148206,-0.24324177,-0.24644696,-0.28025027,-0.23934115,-0.22498389,-0.24574105,-0.19768792,-0.10354928,-0.12477429,-0.11866668,0.15745316,0.58571338,0.98262658,1.0436682,1.1225622,1.1832455,0.97191159,0.55008787,0.51935489,0.8609083,1.164334,0.5116421,-1.4346118,1
0.073556519,-2.8797288,-4.1354464,-4.503378,-3.9498658,-2.834517,-1.8920225,-1.5921966,-0.8161178,-0.20605957,-0.40520665,-0.38293815,-0.30341104,-0.30725538,-0.2296766,-0.31277647,-0.31349237,-0.22761178,-0.34771357,-0.31209716,-0.40442447,-0.36146969,-0.37507038,-0.42503669,-0.44787819,-0.49784859,-0.61392914,-0.5687585,-0.66541331,-0.80123074,-0.79969962,-0.84104879,-0.86769307,-0.91720192,-0.98259144,-0.92447919,-0.88111237,-0.90825093,-0.89436484,-0.72239626,-0.65190703,-0.62194842,-0.53177221,-0.35509945,-0.30181453,-0.17186269,-0.13734246,-0.049889332,-0.036494773,0.010217726,0.01777036,0.001036119,0.058070067,0.046363613,0.068574714,0.10433788,0.1659659,0.20188601,0.18637149,0.15148722,0.29976971,0.27366017,0.33750085,0.33866899,0.3547172,0.38466395,0.49673412,0.48738417,0.47112913,0.54740768,0.54560045,0.61149745,0.57857682,0.67947178,0.64672657,0.56006802,0.5865599,0.52790449,0.48061154,0.44143347,0.4507516,0.4106839,0.43431151,0.36426888,0.40886155,0.45784824,0.30296319,0.4337922,0.42256989,0.40130721,0.3759896,0.30971531,0.32756164,0.35506858,0.34539813,0.36971802,0.33662245,0.38933122,0.45825534,0.73097648,0.92701886,1.2007201,1.3694602,1.493089,1.7800812,1.8185462,1.810791,1.8174993,1.6185689,1.4180457,1.1914036,0.91848549,0.55949901,0.18953113,-0.16175517,-0.16787085,-0.1768232,-0.21669078,-0.23185886,-0.20423534,-0.20860007,-0.2102292,-0.25833582,-0.29984774,-0.21958576,-0.13266532,-0.1395094,-0.11231988,-0.000588114,0.27727312,0.99143201,1.2118268,1.1564423,1.0470062,0.98102349,0.86734285,0.99855433,1.3880781,1.2974258,-1.7004079,1
-0.13825638,-3.0752273,-4.4693227,-4.3486107,-3.9792881,-2.9224717,-1.8483271,-1.4964046,-1.0079474,-0.269918,-0.25986291,-0.2776573,-0.25640192,-0.24072915,-0.23751784,-0.24903122,-0.18466394,-0.28501448,-0.33104831,-0.35582873,-0.33359366,-0.44827872,-0.40034852,-0.32922331,-0.48580603,-0.50135719,-0.51098586,-0.6013261,-0.55726908,-0.59733513,-0.75341238,-0.74995429,-0.77475003,-0.85328161,-0.8502367,-0.82299995,-0.74257101,-0.95050893,-0.83577919,-0.69559977,-0.72551796,-0.5963622,-0.49564965,-0.39330957,-0.32628973,-0.23524033,-0.24007975,-0.15333795,-0.11272622,-0.081185297,-0.10421008,-0.034476452,0.012235366,-0.007072542,0.093327935,0.040729113,0.12539325,0.13513875,0.096038899,0.070657667,0.12386458,0.24002977,0.14352672,0.21922423,0.28656231,0.26150737,0.32346272,0.40608004,0.39386221,0.46631253,0.50113723,0.538143,0.6077558,0.64161616,0.64951415,0.61300304,0.53933865,0.67974418,0.59804834,0.55989866,0.51803425,0.55873557,0.43254969,0.46079835,0.56034403,0.53284154,0.41778211,0.50559174,0.38630421,0.40434476,0.46400354,0.40629175,0.50318362,0.42060706,0.4650045,0.42976993,0.49708459,0.49674232,0.57921316,0.97975077,1.2232847,1.2799901,1.3951666,1.6606457,1.927906,1.9147006,1.8015238,1.6785594,1.4401028,1.2740386,1.0704524,0.66183584,0.35339895,0.036911332,-0.14405475,-0.18150396,-0.11408348,-0.14381478,-0.085821767,-0.10483509,-0.17324009,-0.21513823,-0.13869057,-0.1382228,-0.15056318,-0.1121177,-0.10943826,-0.07452535,0.014589833,0.20798432,0.7834149,1.1792104,1.1936901,1.1859634,0.98719051,0.68892409,0.77437195,0.82393521,1.1172184,-1.640485,1
0.85877977,0.23055218,-0.92975542,-1.4650986,-1.2916441,-0.82157604,-0.26978089,-0.13644272,0.079594862,0.34775807,0.39655423,0.35693512,0.35341289,0.38951861,0.33749678,0.34584061,0.35840548,0.36269738,0.32643631,0.35460586,0.32765773,0.32722581,0.31863719,0.29674405,0.28199938,0.23206378,0.22806732,0.20553509,0.18763811,0.13896206,0.12417575,0.066419512,0.072708121,0.044751419,-0.006386901,-0.031743041,-0.016389203,0.016894208,0.036302216,0.064980863,0.10310849,0.19109657,0.24589906,0.3227648,0.37797357,0.41342742,0.40687953,0.47268379,0.49574383,0.5518664,0.50390804,0.55249445,0.57171255,0.54711495,0.57100117,0.55251828,0.55834569,0.57793982,0.56841993,0.55354595,0.58304652,0.59222785,0.6070222,0.63857224,0.64483247,0.67232332,0.69028416,0.69977497,0.71361558,0.69594711,0.71463459,0.75602126,0.78996754,0.79529381,0.74812088,0.73649105,0.76304081,0.75339064,0.74215026,0.71654098,0.70407381,0.69507615,0.69504905,0.65817531,0.67171356,0.66336034,0.61570056,0.63976636,0.6183283,0.61321825,0.60474684,0.59373325,0.55776416,0.56765224,0.58324977,0.62660999,0.70255015,0.73712814,0.81764783,0.88772029,0.94039094,0.98940093,1.0999489,1.1787607,1.1360854,1.0660185,0.97544597,0.87007104,0.78414412,0.62069233,0.47973281,0.30542035,0.16908068,-0.41783219,-1.3970402,-1.6709261,-1.8467775,-1.9596385,-2.0010604,-2.0784015,-2.1169919,-2.1273498,-2.1757132,-2.2002798,-2.2282048,-2.2539654,-2.2899998,-2.2570939,-2.1689449,-1.993035,-1.773848,-1.8970357,-1.8112287,-1.633664,-1.5153592,-1.6050851,-1.6686827,-1.6066535,-1.4279965,-2.0379249,1
-0.76160326,-2.9212433,-3.8943153,-4.384961,-4.0682246,-3.5111043,-2.5328155,-1.6873964,-1.3980988,-0.89928768,-0.53766749,-0.4819763,-0.5333801,-0.52246989,-0.49307977,-0.53051716,-0.44779559,-0.46459623,-0.38506357,-0.48942808,-0.42492148,-0.44130039,-0.37539759,-0.45228681,-0.40672606,-0.41976808,-0.47985054,-0.45911045,-0.45683208,-0.48010485,-0.58779941,-0.57426024,-0.55424721,-0.62051811,-0.5948176,-0.61261337,-0.64766504,-0.56023832,-0.63740623,-0.63460819,-0.51851928,-0.50397191,-0.36189107,-0.29904866,-0.26717888,-0.19419251,-0.19240208,-0.071317489,-0.053523598,-0.029566763,0.047020617,0.004020986,0.055046918,0.04336091,0.023562547,0.019542722,0.013656264,0.084049077,0.090896122,0.12223264,0.1628499,0.082302086,0.23661865,0.18365295,0.18977741,0.20949712,0.20935465,0.20315573,0.33178146,0.3224094,0.38638533,0.40866058,0.38929727,0.53045532,0.54518428,0.58389835,0.63601033,0.69719605,0.58756363,0.64901772,0.63839173,0.59604228,0.55777869,0.54128097,0.55901731,0.53776883,0.52052714,0.44365812,0.54493639,0.52231248,0.5076893,0.49369375,0.48639967,0.47171256,0.50220469,0.68602434,0.81336346,0.92577458,1.0300284,1.1044336,1.3856685,1.5812144,1.7173166,1.7044098,1.6705234,1.5924119,1.4331079,1.2461458,1.0478742,0.80275863,0.50358214,0.31896599,-0.012007384,-0.042840598,-0.10770912,-0.16100313,-0.20358106,-0.14437556,-0.14597041,-0.20486453,-0.1647142,-0.17971524,-0.17907795,-0.15822417,-0.12270101,-0.10996763,-0.084732804,-0.04736188,0.21757117,0.58297649,1.0009154,1.0731004,1.2425013,1.4495869,1.3797497,1.0681166,0.74606108,0.84904613,1.1621124,-0.38125681,1
-1.301298,-2.989641,-3.704943,-4.1488547,-3.9036128,-3.3257177,-2.1025173,-1.7056873,-1.4899438,-0.88404383,-0.6846143,-0.55186543,-0.62603217,-0.63968242,-0.5584512,-0.50564602,-0.51106602,-0.53234828,-0.50088009,-0.55941794,-0.5462225,-0.49766753,-0.48558232,-0.56869601,-0.48963598,-0.48753371,-0.45806507,-0.42942209,-0.5050821,-0.50316821,-0.54880437,-0.512426,-0.48612006,-0.62583826,-0.53934356,-0.4861114,-0.59741706,-0.53522417,-0.45898318,-0.39084838,-0.44101422,-0.38954046,-0.29004374,-0.18518676,-0.059579552,-0.087890974,-0.11692847,0.09454674,0.1166804,0.007472742,0.087755204,0.10047019,0.051604856,0.12978908,0.14450096,0.06262706,0.00184787,0.10865023,0.12333186,0.062150369,0.12970292,0.18346867,0.064946993,0.1297958,0.16801938,0.21760721,0.30044069,0.22072621,0.30692202,0.35024062,0.39201299,0.52818218,0.54960233,0.523986,0.50672022,0.58206167,0.54640963,0.5849327,0.70433725,0.67760483,0.59641257,0.62728538,0.53711672,0.50351508,0.53146798,0.47491203,0.59934714,0.53217456,0.53372587,0.51101375,0.45559046,0.50589023,0.50785527,0.50612204,0.57987599,0.62239847,0.87086587,1.1542426,1.2590725,1.4620276,1.5922662,1.8444742,2.0678719,2.0718764,1.9283751,1.8717644,1.6871679,1.504645,1.2842756,1.0074009,0.75288104,0.47934959,0.16260368,-0.074305981,-0.17047426,-0.11404013,-0.064959961,-0.13946589,-0.14847938,-0.061171629,-0.11184703,-0.14004852,-0.11198049,-0.032270747,-0.13151704,-0.0959837,-0.076272576,0.008376237,0.3201035,0.86675576,1.4459423,1.2631903,0.9698999,0.51711974,-0.066677373,-0.6036336,-0.62608589,-0.18156769,0.54923178,-0.42620998,1
0.85800874,-1.3490352,-2.5433446,-3.685131,-4.2771303,-3.5191402,-2.2332093,-1.6398783,-1.368004,-0.23611842,-0.076511098,-0.13904594,-0.059435361,-0.024977638,-0.15624813,-0.13442532,-0.12395812,-0.19185532,-0.19286636,-0.31078199,-0.30818064,-0.4357883,-0.35784479,-0.42026788,-0.41554038,-0.47502328,-0.54997198,-0.54401544,-0.71335524,-0.82534648,-0.85004259,-0.81491431,-0.96014415,-1.0172162,-1.0929759,-1.1462134,-1.142545,-1.2097047,-1.1027754,-1.1434908,-1.1032467,-1.0631579,-1.1009019,-0.96493974,-0.81255336,-0.6334351,-0.57047459,-0.37270157,-0.21113233,-0.22950199,-0.17179704,-0.049022292,-0.071116692,-0.19001303,-0.03665811,0.088772483,0.045374676,0.096883289,0.014234019,0.000786546,0.088406539,0.21731606,0.16921582,0.17802108,0.19959795,0.22391187,0.22299546,0.27440042,0.32521521,0.4692716,0.58176464,0.46344255,0.53086016,0.5982151,0.5168217,0.6042201,0.6252074,0.44394036,0.6059408,0.69434583,0.43123945,0.62263436,0.46691996,0.37386549,0.36749604,0.31984516,0.34893331,0.41375451,0.37836931,0.30817591,0.36239856,0.16322801,0.26476249,0.21534929,0.21178965,0.23568049,0.253067,0.31449689,0.24000729,0.38119439,0.55856259,0.92712345,1.1087165,1.2196674,1.2525298,1.5148518,1.8825607,1.895322,1.8746066,1.6598052,1.2805119,1.1052744,1.0178317,0.94272847,0.49335787,0.12802794,-0.19458926,-0.19209882,-0.28433288,-0.40367519,-0.21890343,-0.20326603,-0.23899914,-0.14718229,-0.22230659,-0.17665515,-0.20533013,-0.085614664,-0.050494934,-0.055082596,0.18256531,0.98512055,1.6551693,1.5733156,1.893912,2.2066664,2.2187502,1.4412505,0.35648857,0.86054188,1
0.011899162,-0.043893207,-1.3191872,-2.9852164,-3.9556113,-4.7492243,-3.6925982,-2.2513854,-1.647244,-1.3782748,-0.19445122,0.035159102,-0.12539763,-0.26159381,-0.13815211,-0.089125698,-0.22297361,-0.20376771,-0.21152033,-0.27444942,-0.26728157,-0.3373698,-0.31244776,-0.36263881,-0.54445469,-0.47719204,-0.55996885,-0.66923355,-0.61232253,-0.70167252,-0.8495175,-1.0091942,-1.029458,-1.1090769,-1.2371268,-1.257715,-1.2064157,-1.2499327,-1.3441658,-1.3101132,-1.2524217,-1.0568155,-0.95554629,-0.83465048,-0.69431243,-0.75007654,-0.47222415,-0.28163057,-0.31942788,-0.24107719,-0.1645454,-0.17509144,-0.068022718,-0.22351621,-0.14669872,-0.11010463,-0.023439528,0.066626225,-0.041649558,0.064722652,0.11471752,0.088863028,0.027524734,0.070842307,0.020341696,0.21865011,0.32797263,0.37086802,0.41671629,0.44750192,0.51173766,0.65290192,0.84972198,0.80465984,0.84062709,0.69356715,0.89293753,0.744258,0.72646581,0.74156833,0.64595828,0.75124289,0.6757463,0.60582702,0.60028233,0.68108294,0.5094749,0.49677388,0.51108641,0.56369339,0.56934342,0.41490347,0.48506321,0.48000613,0.42180994,0.47743329,0.34764897,0.50498775,0.38340962,0.39025946,0.51854555,0.43024807,0.46239088,0.44456288,0.49393346,0.47269684,0.60978711,1.1451205,1.6021765,1.5335357,1.3933976,1.304871,1.1509167,1.1008005,1.1310704,1.0632435,0.72848518,0.2362147,0.09030436,0.12203455,0.062016084,0.085911364,0.12519636,0.099129775,0.10947539,0.141657,0.094358498,0.034802379,0.036813583,0.27952672,0.23611202,0.7112508,1.7583043,1.5560638,1.553598,1.690662,1.4874171,0.91449056,0.074457857,0.66015129,1
-1.1403671,-3.7240981,-3.9725683,-4.3670898,-3.7946852,-2.5801384,-1.821421,-1.6553273,-0.89561037,-0.44804481,-0.44770954,-0.38437751,-0.48003204,-0.40292504,-0.39922722,-0.36613333,-0.45669161,-0.41401429,-0.44532258,-0.4422191,-0.41197001,-0.42413582,-0.46654492,-0.45470822,-0.5207523,-0.54148546,-0.55307391,-0.52117656,-0.65739155,-0.68791838,-0.63776647,-0.67173053,-0.71590359,-0.76409683,-0.76973547,-0.68464996,-0.67607726,-0.69731387,-0.65699719,-0.72105601,-0.55512575,-0.48566917,-0.38282085,-0.31865611,-0.30264339,-0.24047206,-0.24252533,-0.2118059,-0.12251746,-0.070792046,-0.10911604,-0.033471959,0.004874415,-0.01273682,0.075146185,0.098957941,0.11127674,0.093067282,0.12714873,0.12544029,0.17414888,0.14045187,0.23488766,0.2748987,0.33094509,0.33640678,0.40888139,0.48919835,0.47477486,0.62195308,0.5571632,0.53344479,0.53535476,0.62213269,0.63646231,0.5691581,0.5398061,0.58545098,0.58452479,0.55999526,0.6026342,0.55944167,0.46638906,0.41774407,0.50525329,0.43793103,0.45522785,0.47026742,0.45182077,0.42933723,0.38051894,0.38933582,0.46962786,0.40132178,0.46061031,0.39988358,0.3068913,0.5352134,0.69107972,0.85197578,1.1670121,1.3288828,1.5356416,1.721821,1.955704,2.0104925,1.9288086,1.7806253,1.5595422,1.4158893,1.1994751,0.85886502,0.39182781,-0.08292936,-0.15384889,-0.097268399,-0.1577961,-0.095480665,-0.019624756,-0.11886155,-0.087291529,-0.062005685,-0.11286593,-0.036859347,-0.048912685,-0.099301339,-0.10785645,-0.009815873,0.062300908,0.24388159,0.81475227,1.344479,1.2517819,1.2356777,0.9683896,0.35663353,0.4221463,0.51460748,1.0895034,-1.435639,1
-0.85901386,-2.4707908,-3.4395929,-4.4003583,-4.4016946,-3.7195225,-2.5813139,-1.7396161,-1.4452077,-0.99399678,-0.43980165,-0.30375063,-0.44030231,-0.40430519,-0.36410627,-0.27157355,-0.32681368,-0.29357187,-0.32821178,-0.34752226,-0.31205591,-0.1889948,-0.33505722,-0.42266363,-0.35802851,-0.34524491,-0.350754,-0.42218423,-0.36994728,-0.40807928,-0.44929642,-0.43811266,-0.5254496,-0.50407458,-0.55412012,-0.59078342,-0.46920232,-0.46377518,-0.47348552,-0.49101807,-0.39537848,-0.40399235,-0.33540762,-0.20757363,-0.14472984,-0.11952241,-0.02918304,-0.041740528,-0.019580307,0.027325204,0.11702238,0.079067646,0.11897605,0.14265668,0.12231335,0.056951104,0.17685001,0.16505713,0.095404324,0.15211975,0.11070725,0.17639952,0.095532494,0.17166634,0.36888666,0.20541593,0.220667,0.29825701,0.30427866,0.36166988,0.41030876,0.34534219,0.46321461,0.50296976,0.6222385,0.57038963,0.61119386,0.59572414,0.58204744,0.56618392,0.6671601,0.60940457,0.56103137,0.53912358,0.51879757,0.5479718,0.48919645,0.44905971,0.49447341,0.54928829,0.43194228,0.40319815,0.51092189,0.58939439,0.60053973,0.80819404,0.96777212,1.1100772,1.325604,1.5509042,1.8281465,1.9326382,1.9718571,1.9697531,1.8491747,1.7052494,1.5782995,1.3350181,1.0116124,0.76422843,0.53531454,0.12597126,-0.093285623,-0.18769699,-0.1367671,-0.20976492,-0.25881173,-0.1868635,-0.13586345,-0.16849557,-0.13606792,-0.22605668,-0.25057214,-0.12611882,-0.18036699,-0.11604605,-0.1754937,0.006606229,0.4419338,0.96418232,0.96927187,0.77000303,0.55582969,0.27851082,-0.023254646,-0.21835588,0.35893667,0.67936123,0.10791676,-1.7303233,1
-1.7200653,-3.7862362,-3.9311423,-3.7625605,-3.2619803,-2.4008137,-1.6934774,-1.5131386,-0.84351569,-0.42848335,-0.4177688,-0.51989107,-0.43977788,-0.497345,-0.53173337,-0.36124546,-0.40280558,-0.40782836,-0.45872885,-0.52098504,-0.54772998,-0.54479291,-0.56800023,-0.5807741,-0.60904756,-0.64652816,-0.66564899,-0.83250034,-0.87443024,-0.81094137,-0.88088156,-0.93840586,-0.99217215,-0.98270653,-0.98410527,-0.96955228,-1.0502384,-0.94379248,-0.91300943,-0.78775714,-0.76451997,-0.73997851,-0.60516262,-0.47539503,-0.39034383,-0.25118674,-0.21904729,-0.13439443,-0.052922901,0.010478778,-8.90129e-06,0.058882895,0.051042668,-0.019869856,0.046307559,0.084161992,0.012382084,0.1140258,0.11428117,0.14095857,0.11063504,0.13781757,0.22245078,0.17078461,0.21871685,0.26660617,0.28161863,0.36591778,0.4484603,0.39469391,0.46175683,0.50934136,0.60408745,0.59518923,0.65589282,0.61826527,0.54610619,0.64197798,0.63439522,0.64147792,0.66811568,0.56032955,0.61373005,0.53328828,0.50619285,0.49601555,0.47645393,0.4432916,0.46076285,0.51079956,0.45899798,0.4082274,0.45445268,0.44495121,0.44957891,0.56406578,0.64673256,0.77798421,0.93683078,1.1091969,1.2336287,1.3939815,1.6501307,1.7211947,1.7597541,1.7424594,1.5744884,1.4416259,1.2523625,1.0384034,0.89872078,0.516656,0.18344396,0.055846134,-0.12961861,-0.13589414,-0.11629741,-0.18085433,-0.079672531,-0.12183265,-0.15575479,-0.17384594,-0.16959881,-0.1651551,-0.14267139,-0.12157282,-0.15124396,-0.1184565,-0.02013733,0.18521751,0.76174394,0.92551804,0.78990595,0.99044698,1.3268214,1.4340368,1.2851345,1.2969688,1.7783328,1.7424399,1
-0.79574719,-2.6890007,-3.7405361,-4.6411689,-4.2516936,-3.0196011,-1.5802521,-1.4595078,-1.0010282,-0.15093543,-0.20838389,-0.15346719,-0.18421232,-0.11425564,-0.11195251,-0.056843188,-0.047458889,-0.021852121,-0.20278169,-0.13462581,-0.098666459,-0.24799523,-0.32247823,-0.1269465,-0.19290868,-0.37519555,-0.35828572,-0.40237741,-0.33939191,-0.38026959,-0.51906809,-0.41967212,-0.54896964,-0.47914575,-0.46518478,-0.49702455,-0.59516272,-0.72727775,-0.61701089,-0.47900945,-0.58087171,-0.54252682,-0.52649251,-0.37820891,-0.2853643,-0.28263725,-0.1290583,-0.096332823,0.048432951,0.055928654,0.066981852,0.18598964,0.13238473,0.20103761,0.18786495,0.080887277,0.13280124,0.094602833,0.25231948,0.21168034,0.20680472,0.27899011,0.3190768,0.15308514,0.27666344,0.39581834,0.15996357,0.25730506,0.47745776,0.6300881,0.59002497,0.47972638,0.74071953,0.71328977,0.60313867,0.73951436,0.67121804,0.86701374,0.76686501,0.66702735,0.61919197,0.57216901,0.48442153,0.59500755,0.66830662,0.62479567,0.59504139,0.44615054,0.43149687,0.48133066,0.3857064,0.4389244,0.26204772,0.3371084,0.36830487,0.37975904,0.49775553,0.65987289,0.89457685,0.87966138,0.99382719,1.4272582,1.6527196,1.8285934,1.9736274,1.8965021,1.8333306,1.5250234,1.2697529,0.90262917,0.51989912,0.26395093,-0.12672078,-0.30456063,-0.36780121,-0.26583823,-0.44839698,-0.40566381,-0.32545102,-0.41170652,-0.41551252,-0.42042969,-0.3507177,-0.32357389,-0.29684289,-0.32638479,-0.22018091,0.044054392,0.50237912,1.2250549,1.2470421,1.1835993,1.4325971,1.1007609,0.40030418,-0.39573891,-0.4382137,-0.30732491,-0.74352655,-3.0158139,1
-0.35313554,-2.7596141,-3.9629973,-4.4406234,-4.5339097,-3.6587116,-2.3503919,-1.8572152,-1.3857999,-0.56655198,-0.50413285,-0.43293113,-0.45730998,-0.44356122,-0.50398837,-0.41769108,-0.39515174,-0.41337485,-0.4642593,-0.44114887,-0.46124098,-0.48592185,-0.42191415,-0.49152824,-0.50478763,-0.59923487,-0.55024286,-0.601358,-0.64910801,-0.66691857,-0.68687849,-0.71823832,-0.8324866,-0.80658267,-0.81984381,-0.78630367,-0.72528903,-0.77581681,-0.63848856,-0.63393937,-0.57917233,-0.46924353,-0.38569807,-0.36573079,-0.24612791,-0.14710469,-0.098491857,-0.014322333,-0.02677238,0.017731648,0.039480412,0.007198132,-0.015833541,0.068381236,0.13585988,0.13422296,0.11815866,0.19432138,0.15334854,0.07687335,0.26279813,0.20419342,0.27306544,0.22572007,0.26669358,0.39308613,0.42554204,0.43474292,0.48697652,0.57515731,0.58177822,0.58560296,0.73100315,0.6666787,0.64556322,0.70509219,0.68925065,0.73530029,0.63240702,0.72120114,0.65179852,0.67484998,0.712926,0.5671246,0.4865196,0.55678758,0.56943316,0.55645977,0.50402994,0.49046278,0.42241392,0.39181302,0.3827756,0.4605814,0.39675691,0.38350057,0.43164814,0.41071338,0.53313358,0.58740006,0.51801136,0.57690419,0.82003988,0.93836455,1.0555546,1.1344468,1.4007751,1.6748894,1.6733641,1.2812247,1.0051504,0.96568355,0.89734753,0.89792568,0.70416204,0.4806769,0.049752751,-0.077095317,-0.043614793,-0.1220842,-0.027756017,0.051595571,-0.022757107,-0.001909622,0.027173053,0.050088366,0.064222645,0.087445177,0.14774802,0.22748977,0.79204342,1.6527142,1.7261995,1.2391969,0.82338833,0.33393857,0.17034953,0.016251948,0.95065789,0.04900274,1
1.3105225,-0.4168748,-2.2586526,-3.2877903,-4.3113439,-4.4306919,-3.4112748,-2.1444894,-1.7613546,-1.393042,-0.27841576,-0.047124381,-0.16361562,-0.17329866,-0.11795414,-0.16958132,-0.19354424,-0.20047181,-0.27809907,-0.2234038,-0.27033044,-0.35157078,-0.43229135,-0.41200325,-0.59454738,-0.53328619,-0.56618973,-0.63583145,-0.62627808,-0.64365486,-0.76583312,-0.79953463,-0.77210609,-0.85300483,-0.97028937,-0.97403861,-1.0558777,-1.0277573,-1.02807,-1.0673301,-0.98154284,-0.76928488,-0.77966056,-0.75132618,-0.65865608,-0.5550435,-0.41625829,-0.30266577,-0.30710922,-0.17633001,-0.13966638,-0.20204102,0.054664864,0.012439591,-0.037058437,-0.032076655,0.050143616,0.14538634,0.1372985,0.12556197,0.13570597,0.33061201,0.29229632,0.29309495,0.30454039,0.30396032,0.23514421,0.25241362,0.45459027,0.42770945,0.41760109,0.42015339,0.52132173,0.58563002,0.56734547,0.72747075,0.63659885,0.68827598,0.6160036,0.60838472,0.61077894,0.65172681,0.53652758,0.52766098,0.65878165,0.53550599,0.52702799,0.51422849,0.50837527,0.49488277,0.49385586,0.44796526,0.40368111,0.33129032,0.29057442,0.34354772,0.26644461,0.44132287,0.41997527,0.50656282,0.84391985,1.0591407,1.2274207,1.3475219,1.5032099,1.4625275,1.7840333,1.9207749,1.6625152,1.3958068,0.97257881,0.79150826,0.87224767,0.88765055,0.49696123,0.11735677,-0.16637321,-0.13905556,-0.22333453,-0.11680164,-0.15172699,-0.1784204,-0.21608775,-0.084125203,-0.10223977,-0.12089836,-0.12251164,-0.18405995,-0.1871697,-0.16048229,0.005926267,0.92012719,1.5008536,1.2979227,1.5971434,1.4573027,1.2796802,0.3353268,0.36779161,0.63001951,1
0.3308203,-2.4158494,-4.0271171,-4.2289931,-3.7903102,-3.1280222,-2.0055026,-1.4660808,-1.1955059,-0.50935537,-0.30197586,-0.25387262,-0.31803783,-0.34794389,-0.31788789,-0.3157957,-0.18670272,-0.12875828,-0.22116978,-0.33909157,-0.35278895,-0.41796549,-0.42339188,-0.53642001,-0.46626172,-0.47965223,-0.48605147,-0.59543769,-0.52715895,-0.64950138,-0.70872096,-0.73461414,-0.78133793,-0.77695446,-0.87110946,-0.88097827,-0.80028179,-0.77065654,-0.71919985,-0.56100285,-0.49070924,-0.50091937,-0.45709544,-0.36123002,-0.24638155,-0.18243545,-0.093786668,-0.046183547,-0.046819498,-0.076349462,0.006836667,0.047689984,0.032375186,0.046216994,0.053371449,0.10252447,0.19339751,0.17224377,0.10202128,0.1284534,0.20440359,0.3034283,0.34809034,0.28099986,0.42669368,0.4814727,0.35487011,0.45484558,0.4447794,0.54933974,0.57233293,0.6153144,0.61626456,0.59027198,0.6481706,0.65071481,0.63064398,0.58551587,0.60280686,0.60076377,0.56154447,0.57524714,0.53012612,0.53904143,0.49211202,0.41624029,0.40688989,0.41832319,0.37317184,0.24776052,0.38799009,0.39048997,0.39519888,0.37330885,0.38721755,0.49613952,0.69589038,0.89873226,1.0661111,1.2092259,1.4304824,1.7792178,1.9572904,1.7428079,1.6905371,1.5420226,1.3880332,1.1573392,0.75051367,0.50008078,0.24254548,-0.12157334,-0.23712017,-0.40589933,-0.3869244,-0.31923943,-0.35188164,-0.34876359,-0.42096792,-0.22696138,-0.25407976,-0.26375835,-0.36103512,-0.28963967,-0.25092301,-0.32739574,-0.25500168,-0.018236374,0.5358563,1.0535402,1.228183,1.282262,1.5903031,1.3796853,0.94645429,0.73428785,1.4016714,1.4851319,0.11905583,-2.5969672,1
1.0091688,-1.1981326,-3.4629062,-4.418469,-4.1453429,-3.5248505,-2.5482218,-1.4532772,-1.3143307,-0.8347663,-0.12158977,-0.12917991,-0.09890737,-0.062191725,-0.14991912,-0.10848301,-0.11600454,-0.12858512,-0.14348266,-0.18541057,-0.14147845,-0.21521695,-0.27890673,-0.30776775,-0.33112481,-0.33210036,-0.35713742,-0.46033824,-0.5031571,-0.53899813,-0.58832186,-0.58811117,-0.70814511,-0.7827847,-0.86147785,-0.78647425,-0.76000817,-0.90717003,-0.85652328,-0.8444864,-0.72410037,-0.70987702,-0.66430894,-0.42328175,-0.32942442,-0.31341375,-0.17688551,-0.12114549,-0.064043567,-0.026855584,0.040393121,-0.028733472,-0.001717929,0.030735219,0.065770592,0.068957141,0.13540119,0.17650126,0.13033048,0.11338228,0.10117101,0.22652363,0.29011404,0.26527257,0.19072419,0.27147347,0.38682191,0.33385531,0.38213885,0.31002706,0.39875519,0.49373116,0.42555189,0.47726926,0.43724823,0.43302397,0.45378189,0.47678625,0.44943212,0.35162538,0.50456462,0.34713869,0.392742,0.41008358,0.33464648,0.30247399,0.37671802,0.37107513,0.27696835,0.24209276,0.20185899,0.24832699,0.22487945,0.25901402,0.43263595,0.65539761,0.693431,0.81038627,0.99259735,1.1688883,1.4642536,1.8005229,1.8728622,1.8506364,1.7826928,1.6415448,1.606235,1.2700374,0.95517031,0.61831465,0.24315275,-0.16082239,-0.32492997,-0.38057509,-0.43907307,-0.35237045,-0.38379492,-0.39634939,-0.30964335,-0.26899929,-0.33379835,-0.31695822,-0.35657302,-0.22011836,-0.30313148,-0.20766364,-0.18572355,0.092539189,0.67172473,1.1859529,1.0932838,1.3339406,1.7716032,1.7529844,1.309246,0.88674169,1.225906,1.178025,0.18710897,-2.1482741,1
1.3682394,-0.61448669,-3.0211797,-4.3112467,-4.3281908,-3.6253743,-2.5588088,-1.6717008,-1.4242095,-0.85509624,-0.082671779,-0.015743647,-0.098503751,-0.089297472,-0.050577261,-0.056719602,-0.041236171,-0.09068119,-0.12608909,-0.19805449,-0.22360599,-0.25407661,-0.23868677,-0.25036229,-0.36633227,-0.39720179,-0.4261304,-0.5253209,-0.5563779,-0.68290994,-0.66434444,-0.80655064,-0.83752235,-0.90168755,-0.95361126,-0.93893013,-1.0018033,-0.95582017,-0.90694375,-0.78717351,-0.76894441,-0.73952587,-0.49382281,-0.43702119,-0.30791294,-0.27647405,0.004917112,-0.014299452,0.079710816,0.11293093,0.16459412,0.16640044,0.073346267,0.11290961,0.041765686,0.073263822,0.091250651,0.13684181,0.2006323,0.15891659,0.10862605,0.23687724,0.24203317,0.2071679,0.25413409,0.24076084,0.32422239,0.3613272,0.39045655,0.47211713,0.43578442,0.51075773,0.60437969,0.6212335,0.71638424,0.61408462,0.7525974,0.66459675,0.68228454,0.598134,0.66577653,0.62816355,0.58530332,0.53623316,0.46802498,0.51282978,0.46073363,0.45986178,0.34005798,0.48235574,0.32717217,0.30988079,0.28987526,0.21810185,0.32936299,0.40030686,0.60242265,0.72385727,0.85973855,1.053605,1.1562321,1.3648997,1.7623901,1.9374593,2.0085396,1.8170797,1.6962698,1.4672772,1.1200412,0.91125504,0.50597221,0.11002557,-0.27840357,-0.54613421,-0.62900859,-0.62722465,-0.56463302,-0.56042466,-0.59581738,-0.57067648,-0.63561753,-0.62255552,-0.6573259,-0.55475402,-0.54293492,-0.6369315,-0.6444053,-0.40278606,-0.30626258,0.24462841,0.79646121,0.7984437,0.96978769,1.2652813,1.301972,0.94625429,1.0065858,1.4028738,1.735848,-0.053764153,1
1.0891979,0.92873895,-1.1315366,-3.3105961,-4.3883207,-5.3301935,-4.7822402,-2.953121,-1.7716142,-1.4182393,-0.17012564,0.34878593,0.11060366,0.36878259,0.32727401,0.2119541,0.37282003,0.17333292,0.081918444,0.13852229,0.075238181,-0.001473528,0.1488701,0.10960127,0.051107504,-0.067915955,-0.17709275,-0.1938053,-0.29699095,-0.43763448,-0.40812956,-0.42943533,-0.35940304,-0.49418754,-0.5937662,-0.67667535,-0.62211922,-0.70252998,-0.70572284,-0.55638669,-0.56975012,-0.58505391,-0.56675814,-0.50288281,-0.35223555,-0.26801979,-0.062043939,0.006580463,0.02738666,0.064534213,0.11886075,0.072685177,0.10866223,0.055785234,0.076547859,0.1347551,0.24539089,0.058643054,0.10791186,0.19896238,0.24232351,0.30716566,0.17470349,0.19397879,0.28183359,0.25220605,0.31117216,0.26362967,0.46357222,0.51598454,0.42296064,0.55608157,0.60388532,0.67416334,0.70444523,0.69253326,0.62688454,0.63408106,0.66989495,0.59819734,0.57683212,0.54523706,0.50276282,0.26040885,0.39937843,0.34249419,0.44084283,0.43057668,0.34894985,0.31081991,0.1996173,0.21156504,0.25581302,0.20043301,0.25599902,0.25766486,0.11729666,0.17673005,0.13099147,0.086012816,0.16005399,0.072664211,0.065963683,0.09861247,0.24772328,0.13300457,0.50236189,1.1055102,1.3985552,1.2606504,1.1907487,1.1239617,0.95411428,0.84537057,0.99814065,0.70454082,0.27730897,-0.2495917,-0.37872523,-0.56402755,-0.39324576,-0.35708314,-0.28269196,-0.4636721,-0.51675505,-0.44009392,-0.44922021,-0.31550873,-0.38756526,-0.36466291,-0.24371364,0.26533367,1.5374612,1.7471782,1.9806619,1.7062468,1.2006516,0.086568346,-0.54319245,0.11878573,1
-0.46790942,-2.2131483,-3.5158313,-4.7086754,-4.959217,-4.0613342,-2.7768986,-1.6020749,-1.5563484,-0.78631835,-0.2035959,-0.17197855,-0.17414713,-0.14905519,-0.17353102,-0.24255182,-0.1682294,-0.18539545,-0.24886677,-0.27527381,-0.27948404,-0.24786468,-0.25079788,-0.25846451,-0.36373908,-0.24200761,-0.37312647,-0.41952481,-0.29521109,-0.46762241,-0.46646796,-0.54985007,-0.59974453,-0.53005653,-0.6069059,-0.52559022,-0.58869912,-0.45026191,-0.44688093,-0.46816068,-0.30751825,-0.24436208,-0.044055755,-0.089903062,0.094991261,0.14024111,0.10120383,0.12276779,0.1208416,0.15203146,0.1424042,0.14927717,0.21984189,0.097653223,0.035954014,0.21223919,0.15996313,0.17466221,0.26022553,0.25387638,0.24565726,0.26117491,0.28471283,0.34839683,0.29286115,0.36312263,0.48312999,0.39817266,0.4610135,0.55578392,0.58073057,0.60084583,0.69446741,0.69857131,0.61878301,0.67946331,0.64040644,0.62861108,0.56004646,0.53811668,0.59315073,0.486636,0.47445984,0.44416009,0.45854438,0.40180402,0.43195118,0.45193315,0.27750805,0.36280791,0.38674994,0.34112143,0.29999422,0.2729533,0.36748087,0.3208933,0.30367198,0.39774672,0.39525883,0.41597818,0.41462322,0.60796073,0.68490583,0.94653296,1.1936053,1.2014514,1.0524219,0.69659553,0.48486,0.50846285,0.46861832,0.54192534,0.42284466,0.14811131,-0.086241037,-0.23824395,-0.12312559,-0.12730354,-0.27047829,-0.21633241,-0.32219497,-0.29518078,-0.16823029,-0.2780998,-0.20633923,-0.10030615,-0.18655624,-0.073800529,-0.020982005,0.28663779,1.2377634,1.7597907,1.7471017,2.0586176,2.3707554,1.6631432,0.82305187,0.27085141,0.086819552,-1.4644027,1
-0.63164137,-2.1328135,-2.9189979,-3.7303343,-4.0073892,-3.7442573,-3.0535624,-2.0523197,-1.6672748,-1.3248765,-0.70725892,-0.52863408,-0.56303186,-0.55163373,-0.52342573,-0.46219481,-0.50905951,-0.55243507,-0.49727649,-0.51389566,-0.49945391,-0.45125932,-0.49910038,-0.53141154,-0.53436181,-0.57885996,-0.58655086,-0.58292056,-0.55387305,-0.63434108,-0.68501115,-0.59316856,-0.64097135,-0.65419547,-0.67141453,-0.61166841,-0.68284365,-0.77061433,-0.65434184,-0.50896973,-0.53867655,-0.4833748,-0.42201496,-0.36659383,-0.20533081,-0.22688109,-0.16343,0.000426178,-0.012092612,-0.030287927,0.0907933,0.072435051,0.062175542,0.11014933,0.030130376,0.042994661,0.071318045,0.035797287,0.081518319,0.022842825,0.098762756,0.072964831,0.089231313,0.18042941,0.094757319,0.14425901,0.21574923,0.23241313,0.29354331,0.29370825,0.34666178,0.45985955,0.40003155,0.50208513,0.48816259,0.51126125,0.54834129,0.51981595,0.54442377,0.59088237,0.57863424,0.62127037,0.63473782,0.57862706,0.50940971,0.5232581,0.54934116,0.57549043,0.48783567,0.54712638,0.48030422,0.45080865,0.55689916,0.6964371,0.80933051,0.94674402,1.0830128,1.2363559,1.3692201,1.4955136,1.6941463,1.9026263,1.8704969,1.78007,1.7082109,1.5894141,1.4229704,1.142898,0.9881862,0.76452037,0.47160892,0.16380589,0.092130749,0.06875175,0.018569021,0.092387393,0.043280561,0.031981158,0.091053334,0.04512786,0.076014226,0.085933626,0.081319034,0.17516671,0.18042044,0.16785846,0.30795522,0.58751986,1.168116,1.3627321,1.2061852,1.2597887,1.0183315,0.62900665,0.085925862,0.002213637,0.56099869,0.55352572,-0.46853768,-1.9546649,1
-1.1124793,-2.4630689,-3.1385245,-3.8288413,-4.0621673,-3.9268649,-3.1336336,-1.7830785,-1.3201713,-1.2469143,-0.63940371,-0.32604696,-0.22476708,-0.38396239,-0.39034703,-0.21841489,-0.32850667,-0.36860854,-0.28989006,-0.21579293,-0.21057004,-0.26866474,-0.23685094,-0.21422251,-0.21955368,-0.31462265,-0.31245792,-0.34687583,-0.27741587,-0.17641148,-0.25778623,-0.35271554,-0.40594554,-0.46400434,-0.40525977,-0.41113949,-0.34902828,-0.24007962,-0.17391183,-0.28573742,-0.26412784,-0.041582196,0.10507675,0.035712304,-0.047558823,-0.061662,0.17980057,0.17527667,0.25146603,0.17203304,0.099399264,0.12500267,0.1615644,0.27296269,0.074591774,0.10196347,0.32627591,0.22282844,0.15771899,0.24457721,0.15793828,0.09201015,0.18991975,0.24025439,0.13274983,0.19033099,0.25630298,0.21498526,0.15194938,0.19883547,0.21022513,0.47163127,0.59313037,0.43900465,0.56034878,0.44070959,0.41324597,0.606614,0.64291901,0.69224925,0.61430236,0.55050118,0.64657489,0.60350153,0.58761265,0.5294648,0.66820972,0.65645856,0.60558001,0.4648688,0.47602343,0.60275845,0.56717359,0.77892763,0.87646544,0.94991038,1.193507,1.3225096,1.5060608,1.7304613,1.888322,1.8964587,1.904582,1.9044315,1.7587384,1.4468196,1.2526161,1.1543125,0.95821513,0.69923765,0.22988381,-0.15013492,-0.19378867,-0.36193991,-0.34533666,-0.21991338,-0.21945648,-0.21292527,-0.29810403,-0.27948675,-0.074531409,-0.17825172,-0.25875004,-0.29701488,-0.1275605,-0.082010496,-0.14537646,-0.041910919,0.53417145,1.2745587,1.3611443,1.0054447,0.5465856,-0.12178969,-0.46870556,-1.2461347,-1.5686897,-1.1886811,-0.48001953,-1.0478173,1
-0.48486712,-2.7390315,-3.4499683,-3.8785111,-3.4948183,-3.1685751,-2.1895904,-1.5723428,-1.2607102,-0.81572576,-0.63077032,-0.53872562,-0.50209363,-0.43630109,-0.4332816,-0.41280945,-0.46936054,-0.44564975,-0.47354858,-0.46908466,-0.4206925,-0.52211538,-0.53565869,-0.54755572,-0.58712568,-0.51272539,-0.67577033,-0.67593982,-0.67205205,-0.7313566,-0.72783752,-0.8603934,-0.92430945,-0.81050584,-0.75213168,-0.94655072,-1.0626754,-0.93403289,-0.90817154,-0.97023203,-0.77671954,-0.7167502,-0.65054989,-0.66400556,-0.58058719,-0.37709852,-0.36635806,-0.47528231,-0.41021423,-0.34589141,-0.42572354,-0.41530497,-0.33859131,-0.091521912,-0.14022953,-0.33923893,-0.30500724,-0.2355033,-0.1823401,-0.19416196,-0.27411831,-0.26625254,-0.024313926,0.013937664,-0.023519031,-0.015254493,0.11428659,0.24435218,0.32830322,0.27530463,0.061191108,0.15779266,0.44177335,0.44425372,0.30534554,0.24720095,0.30713491,0.42111048,0.4845985,0.45175541,0.4801192,0.49701801,0.45055039,0.56539778,0.51671316,0.57442683,0.6193083,0.48827254,0.55940737,0.63271896,0.55567013,0.52400495,0.4668515,0.59391795,0.57203922,0.60148575,0.90485424,0.97159907,1.0313431,1.1430588,1.3419234,1.5783291,1.7368352,1.6473536,1.6690969,1.5717272,1.4717065,1.2949788,1.153343,0.95408853,0.6398333,0.31683233,0.15209306,0.15436698,0.12964318,0.15003904,0.24302719,0.17217821,0.20699578,0.25336661,0.33034237,0.39887399,0.31369391,0.072896384,0.039244901,0.24977917,0.4487169,0.33169183,0.49440348,0.99343615,1.2386728,1.2432532,1.5967692,1.63124,1.6322658,1.589812,1.3676098,1.4441455,1.5240431,0.45238968,1
1.9170472,0.81072744,-1.2037219,-2.6035124,-3.9984934,-4.1435937,-3.034974,-1.8927232,-1.9774612,-1.0479362,-0.11745611,-0.27677507,-0.070657834,-0.27702164,-0.2730618,-0.1839438,-0.2597563,-0.22011108,-0.2680372,-0.38565703,-0.42010775,-0.46023698,-0.35249593,-0.50055482,-0.50726691,-0.58445843,-0.6929397,-0.74146765,-0.81669554,-0.92340022,-0.86280663,-0.93661443,-1.2075814,-1.0925048,-1.1130495,-1.2407545,-1.2206958,-1.2304145,-1.222498,-1.2370422,-1.0659673,-1.096234,-1.0038555,-0.74148519,-0.66142659,-0.62135546,-0.36819339,-0.2869336,-0.26053013,-0.052033345,-0.14142767,-0.095886163,-0.10385679,0.020717704,0.096769674,0.13338176,0.04505939,0.039041019,0.11984568,0.23111073,0.13755949,0.17399192,0.31427106,0.14572387,0.34757894,0.35262249,0.2945119,0.32028542,0.38809981,0.48119393,0.41700834,0.56521631,0.52086541,0.52868639,0.46813625,0.6171979,0.56347504,0.4821486,0.61511828,0.45558917,0.46198048,0.5326795,0.47070338,0.55442776,0.51224643,0.35717471,0.51625934,0.48693492,0.33472075,0.37003231,0.40667151,0.36843697,0.24289116,0.26840464,0.26792038,0.33595112,0.27325689,0.25508315,0.35945157,0.5834287,0.74345076,0.96636151,1.1854385,1.2710693,1.3532248,1.4179989,1.8016175,1.8601428,1.5920248,1.2010708,1.0116711,0.98582825,1.0259378,0.82184357,0.18697332,-0.21247346,-0.34711211,-0.36615277,-0.24872942,-0.22587634,-0.33889773,-0.22436113,-0.17555455,-0.33406821,-0.31440468,-0.25252107,-0.1864807,-0.31819538,-0.015577808,-0.14647331,-0.14201111,0.47798873,0.77525651,0.95125776,1.5421817,2.1438497,2.2284051,1.8524531,1.2296603,1.7592109,1
0.061735752,-1.3674963,-1.1403717,-1.8232074,-1.4638506,-0.95335037,0.14946933,0.45774894,0.87530147,1.3633362,1.4299252,1.3847516,1.4316574,1.3619707,1.3577428,1.2921888,1.2371612,1.262793,1.1851169,1.2032316,1.0626787,1.1136091,1.031647,1.0334822,0.86721688,0.83414658,0.92741224,0.86019192,0.85732124,0.7383952,0.61455305,0.58975538,0.61845737,0.6041269,0.56662698,0.54144152,0.59461009,0.51481518,0.47263766,0.5088098,0.51261521,0.53570205,0.49304975,0.49775372,0.49486779,0.49640943,0.47290507,0.49219441,0.4330286,0.35150357,0.30392997,0.1957272,0.20480892,0.16570623,0.1146488,0.058222136,0.053632064,0.003762275,-0.032057522,-0.049623109,0.058903565,-0.14198166,-0.1574055,-0.078505726,-0.10473305,-0.065124382,0.08727551,0.034591529,0.073522609,0.20454165,0.17864683,0.22694077,0.09367678,0.21028707,0.22234265,0.14844658,0.12770762,0.11410041,0.090517185,0.025034803,0.016477521,0.048115944,-0.043520126,-0.085624659,-0.096374196,-0.1062769,-0.15623187,-0.22941222,-0.21852186,-0.28271931,-0.38090378,-0.34537955,-0.30619994,-0.37552466,-0.41157785,-0.40349479,-0.31623206,-0.3648083,-0.34892878,-0.25352402,-0.23877904,-0.20902068,-0.10581236,0.036521123,0.2086785,0.23263579,0.030892965,-0.19661751,-0.34467955,-0.340811,-0.39926058,-0.37284804,-0.33428282,-0.500275,-0.60688792,-0.81326374,-0.89468986,-0.90567564,-0.85172495,-0.85976437,-0.91609695,-0.80034806,-0.87502095,-0.84514336,-0.82384806,-0.833973,-0.77483755,-0.74677779,-0.44668824,0.22785678,1.2868285,1.7520192,1.6900613,1.1929235,0.12323886,-1.9468753,-3.5616858,-4.6447719,-4.1030302,-4.2328662,1
0.91165695,-0.096645939,-2.0395864,-3.3824735,-4.3356056,-4.6259349,-3.258136,-2.0481618,-1.6485205,-0.65436996,0.16855494,-0.17986884,-0.010468677,0.15977391,0.001473471,-0.15358179,-0.05464368,-0.2144669,-0.12851114,-0.10744841,-0.1460733,-0.19240933,-0.27812469,-0.41711354,-0.49504707,-0.43790681,-0.48950969,-0.65609604,-0.68935204,-0.76061611,-0.91147424,-0.9486688,-1.0118903,-1.0941352,-1.1575183,-1.3110141,-1.3138349,-1.2738413,-1.1500796,-1.1594975,-1.141511,-0.96468598,-0.97225294,-0.77704352,-0.60665679,-0.59317798,-0.34635704,-0.23311267,-0.41517993,-0.172853,-0.19082123,-0.064640075,-0.080575354,-0.041006909,0.013650316,-0.080446566,0.047145881,0.089230949,-0.11700458,-0.085964292,0.055295724,0.086865176,0.16114438,0.17503323,0.27510244,0.39986425,0.44325106,0.47114577,0.53887648,0.62623223,0.68606818,0.64096564,0.78750464,0.83248393,0.84465245,0.80181667,0.82083297,0.72786554,0.77846738,0.67464788,0.63592257,0.64889943,0.72284974,0.52054835,0.56205781,0.50324491,0.43996305,0.56008372,0.48198741,0.44475607,0.59752025,0.49793063,0.41192287,0.35378582,0.35052393,0.37514755,0.35367398,0.2840215,0.27562232,0.30451943,0.23107392,0.34647936,0.36237089,0.51749915,0.41585245,0.45179493,0.59117507,0.84321802,1.3862576,1.5641657,1.3734026,1.207555,1.1699337,0.90217106,0.92710972,1.0128864,0.6859771,0.19745139,-0.076849284,-0.058754193,-0.13082746,-0.060188469,-0.1168665,-0.2107631,-0.18799969,-0.27528987,0.032117204,-0.04019364,-0.081713087,-0.085118289,0.13599157,0.46334783,1.5760229,1.7755157,1.7889153,1.9756726,1.7439341,0.83576542,0.20709868,0.77514117,1
0.32146548,-1.6246023,-3.4479577,-4.2710985,-4.1344673,-3.8294758,-3.156713,-1.8975042,-1.3527804,-1.0211233,-0.49360446,-0.4127704,-0.40806507,-0.34896536,-0.32891776,-0.3828117,-0.3800938,-0.35811966,-0.30729436,-0.29884036,-0.29684444,-0.38435916,-0.41859051,-0.43582167,-0.46823563,-0.49561574,-0.54118809,-0.49099854,-0.58698191,-0.66074843,-0.669187,-0.757822,-0.72452628,-0.73904156,-0.80895,-0.82035676,-0.78381312,-0.76472347,-0.76525979,-0.77428806,-0.69366624,-0.63525978,-0.50962967,-0.37623956,-0.2769565,-0.20132739,-0.16414115,-0.10172535,0.021607659,0.038469231,0.04718078,0.022064232,0.080794113,0.059548791,0.063044097,0.086597999,0.070937923,0.15453736,0.074862884,0.13214826,0.14869553,0.023734567,0.26183375,0.22291962,0.20614115,0.19957355,0.2606547,0.31738156,0.26931855,0.27176349,0.31202703,0.43183522,0.44487989,0.51146421,0.45394905,0.58375747,0.5587634,0.50097075,0.66696906,0.59643191,0.5396645,0.49531307,0.52466001,0.63547887,0.55354421,0.54119059,0.49372265,0.40764699,0.45897034,0.39914139,0.43382532,0.41879129,0.38930826,0.43594497,0.43997797,0.44826578,0.54820554,0.73483223,0.94131278,1.0569301,1.2636803,1.4069243,1.543832,1.7898039,1.8045881,1.7463838,1.7356563,1.522161,1.3700242,1.1564246,0.86053886,0.62962821,0.28321041,0.078379748,-0.054744943,-0.055041675,-0.12097918,-0.14062116,-0.17847993,-0.15198556,-0.076189257,-0.16658901,-0.11490059,-0.050447329,-0.15454877,-0.10967553,-0.084573422,0.043627835,0.16885402,0.47604065,0.98894184,1.1836647,1.2677235,1.3210181,1.2613797,0.96156314,0.77978581,0.82671812,0.66687182,-1.1901954,1
-0.33476139,-1.0855614,-2.2060961,-2.7357143,-3.2302568,-2.9000675,-2.1188151,-0.5980444,0.009200207,0.22871424,0.76748688,1.0275697,1.1233746,1.143165,1.1391029,1.108194,1.1282439,1.0597132,1.0745021,0.97003702,0.77188647,0.92042492,0.96580963,0.947524,0.54438984,0.53722588,0.69646128,0.74251368,0.75917785,0.64758567,0.75696279,0.68633304,0.49823296,0.47788191,0.53745944,0.65245498,0.65715304,0.48165565,0.55718437,0.51565786,0.3907493,0.56947344,0.63496364,0.63182561,0.70129826,0.79902088,0.84221819,0.89680602,0.82823149,0.79817328,0.8225483,0.7815447,0.64982504,0.49492341,0.50567618,0.35744976,0.33203052,0.39233599,0.55302351,0.35355219,0.4139564,0.38969331,0.18975716,0.21625424,0.29033305,0.27274676,0.16981297,-0.000974302,0.095577338,0.345028,0.65156672,0.40045707,0.009445416,0.18414126,0.68915332,0.44602567,0.081480867,0.02437601,0.2819395,0.38801216,0.16265989,0.24272102,0.21069953,-0.035193531,0.12586259,0.095962464,-0.11035155,0.17014386,0.22235317,-0.015917166,-0.14683564,-0.19558667,0.31809265,0.35920712,-0.094466242,-0.014279252,0.5613973,0.45782119,0.24902725,0.55110609,1.0857865,1.5312817,1.3313918,1.1037912,0.78789518,0.73363299,0.61918454,0.50801848,0.04925634,-0.40340019,-0.53010915,-0.82913187,-1.3593479,-1.6001868,-1.4987236,-1.5116758,-1.2738214,-1.2285323,-1.72562,-1.6263379,-1.6274236,-1.6940606,-1.529638,-1.6650455,-1.8870828,-1.538041,-1.508161,-1.3705065,-1.3457665,-0.86536556,-0.058482067,0.14552559,0.24723872,0.19007759,-0.38043894,-0.88978676,-1.6889451,-2.4393061,-2.2814338,-1.8895488,1
0.048731057,-1.4908026,-4.0302997,-4.636541,-4.5265875,-3.7179894,-2.4936977,-1.4512593,-0.82598416,0.24374632,0.9971933,1.3713386,1.5211435,1.6127316,1.4819901,1.4804025,1.4766172,1.531927,1.3281,0.99241919,0.96558516,1.0457994,0.945468,0.96231028,0.95073766,0.8824896,0.92209039,0.92136115,0.78251653,0.75336821,0.74001971,0.62850178,0.55986432,0.51908164,0.38054114,0.34600755,0.15910023,0.088491289,0.06387007,-0.012380715,0.014101451,-0.062924862,0.039590571,0.11912298,0.13487869,0.22227815,0.1846942,0.30574172,0.26870728,0.24371017,0.29624364,0.27884436,0.24669015,0.23571355,0.19509817,0.15300646,0.063802697,0.032450992,-0.079533965,-0.006898647,-0.05054956,-0.015076605,-0.091545183,-0.16825886,-0.13776048,-0.15898554,-0.16582712,-0.14270455,-0.27056704,-0.21892402,-0.2763482,-0.37946536,-0.35781753,-0.32019093,-0.36357986,-0.34760491,-0.38785128,-0.32087478,-0.34716335,-0.29911063,-0.27875059,-0.32611822,-0.31777587,-0.28897265,-0.26833796,-0.22229245,-0.28680291,-0.23847725,-0.30083256,-0.28777036,-0.23958325,-0.3161736,-0.20807064,-0.23323976,-0.19364253,-0.13447253,-0.28227173,-0.32672432,-0.20795216,-0.21601026,-0.27787227,-0.16498532,-0.19612581,-0.22756066,-0.23983557,-0.16962391,-0.1594879,-0.22500339,-0.23525647,-0.060056277,0.18022488,0.43345521,0.65701894,0.98780373,1.3890682,1.5047296,1.3235429,1.0918118,0.76563033,0.37049558,-0.022848203,-0.60668867,-0.68136426,-0.84966072,-0.85443817,-0.81242001,-0.79141453,-0.73778191,-0.87863409,-0.78162193,-0.76284294,-0.78401324,-0.29791813,0.29530256,0.30297392,0.61746837,1.0220681,0.83474248,1.3190716,1.3132034,1
0.41500751,-1.4380945,-3.154045,-4.465354,-4.519848,-3.6444336,-2.4463022,-1.8415616,-1.6762881,-0.77390665,-0.2468772,-0.36588847,-0.26987736,-0.31339208,-0.30669818,-0.21031409,-0.30741971,-0.29470706,-0.29261089,-0.38973651,-0.37743606,-0.43071925,-0.42232346,-0.34236772,-0.42799823,-0.50145985,-0.57848607,-0.55312856,-0.52021528,-0.53078266,-0.69990417,-0.73131162,-0.6918822,-0.79295284,-0.7444692,-0.84019674,-0.75359419,-0.75722837,-0.70604019,-0.67573165,-0.65385213,-0.49599265,-0.39011868,-0.33102828,-0.22683217,-0.14023035,-0.020946961,0.044052033,0.17786984,-0.023413302,0.071388417,0.16947928,0.18884139,0.081443789,-0.002580948,0.21065996,0.29098077,0.15202074,-0.006446222,0.18396014,0.25892746,0.2099341,0.2598331,0.30069607,0.40915362,0.36576235,0.273696,0.33866692,0.47730425,0.58720284,0.62866092,0.62523653,0.75112508,0.7648586,0.79148525,0.7275662,0.76804571,0.79298336,0.74636371,0.7817342,0.75234849,0.79325595,0.80136354,0.7749874,0.64772001,0.60100871,0.55350715,0.44525116,0.49153971,0.5644291,0.5795114,0.4869216,0.39836557,0.41832492,0.46684637,0.39714889,0.40965229,0.61734115,0.86228208,0.9922909,1.0738222,1.1779813,1.3435423,1.6917468,1.80145,1.6621792,1.6533825,1.4604255,1.2714621,1.0239371,0.81532735,0.56811651,0.1906847,-0.068068322,-0.26143378,-0.33597396,-0.45141932,-0.33159533,-0.38157098,-0.44871997,-0.44743435,-0.47854691,-0.42320482,-0.48079961,-0.46508287,-0.45205961,-0.43639607,-0.42641715,-0.21075238,0.44948502,0.99169665,1.0915927,1.4208204,1.6573063,1.5236533,0.64660682,0.046560764,0.013183032,0.19366722,-1.2411657,1
-1.0589422,-2.7637368,-3.9034219,-4.6319983,-4.1377193,-3.2831088,-2.0515441,-1.5400686,-1.4192185,-0.64444242,-0.34459206,-0.472524,-0.42619378,-0.52734664,-0.4134203,-0.36509117,-0.32081387,-0.40043978,-0.54247456,-0.46115287,-0.38157118,-0.47215643,-0.46505389,-0.47068231,-0.35108979,-0.40926213,-0.44043543,-0.44051294,-0.51091261,-0.5264373,-0.55038759,-0.60624199,-0.67985372,-0.65446333,-0.56087793,-0.52657957,-0.54287032,-0.57152471,-0.57999312,-0.53722459,-0.4844264,-0.559102,-0.37667154,-0.35050526,-0.27144031,-0.070579467,-0.048642467,-0.044205624,-0.00741081,0.077814186,0.026281238,0.001250728,0.13121931,0.089735507,-0.004104246,0.04198134,0.096877195,0.11050793,0.024522396,0.034924195,0.1698961,0.13560587,0.079823455,0.19387535,0.23562924,0.17861725,0.19346018,0.21081398,0.26243083,0.32970838,0.39802415,0.46713221,0.53640119,0.51219294,0.54429459,0.55846902,0.69435425,0.67188908,0.64351062,0.66795011,0.58728074,0.55185006,0.56940644,0.62650017,0.57097891,0.47473165,0.53684872,0.58594975,0.57481729,0.50611528,0.43952051,0.47865995,0.5468541,0.58604725,0.77418414,0.85485917,0.97962959,1.2213824,1.3543095,1.5611266,1.7821549,1.9030276,1.9349921,1.8854813,1.7848551,1.7278623,1.517852,1.2882339,1.0084791,0.72756846,0.37332992,-0.020197084,-0.15281416,-0.14083375,-0.24401724,-0.16087591,-0.26567344,-0.20762101,-0.19270128,-0.28720492,-0.24404407,-0.21271525,-0.24241321,-0.2992168,-0.18567334,-0.22253919,-0.11564251,-0.14573637,0.24844975,0.8712092,1.1750129,0.86881339,0.70870326,0.54753592,0.35526103,0.15130965,0.36106866,0.81281674,0.99217737,-0.18305108,1
0.87147899,-0.99600772,-2.680968,-3.505558,-4.3154841,-4.0043131,-2.8228255,-1.85436,-1.6453167,-0.77203997,-0.34259564,-0.37575287,-0.33565098,-0.21535676,-0.28845294,-0.27168855,-0.13408919,-0.38605569,-0.31941634,-0.28738433,-0.41177904,-0.45697468,-0.31228785,-0.47981242,-0.4729086,-0.49337324,-0.53818558,-0.63533679,-0.72655644,-0.7490021,-0.77229025,-0.92090799,-0.90235947,-1.005457,-0.94680578,-1.0529793,-1.1042481,-0.98541533,-0.97117667,-1.0316322,-1.0251317,-0.80662322,-0.74762623,-0.6676784,-0.50586418,-0.35784822,-0.31984311,-0.19936981,-0.16875992,-0.045526508,-0.18240898,-0.10251805,0.057845246,-0.025115559,-0.088293701,0.063874443,0.041089049,0.032446189,0.12744851,0.082738369,0.10461941,0.1775032,0.13257215,0.14626789,0.19586472,0.31694909,0.31209911,0.4196422,0.37975486,0.41602195,0.54311225,0.47429598,0.52814915,0.6631458,0.67900607,0.65005018,0.69268791,0.60647235,0.68229755,0.62936486,0.65571115,0.58211291,0.49621657,0.45626646,0.56811668,0.42449477,0.32786971,0.46203234,0.35727042,0.30077302,0.2923586,0.3562548,0.33042575,0.38224504,0.36488408,0.30326219,0.37911134,0.2685837,0.36693674,0.34410173,0.60456373,0.90836703,1.2943796,1.3127051,1.4464805,1.5470117,1.8055649,1.997713,1.92957,1.719129,1.5845777,1.5034735,1.1672404,0.96861786,0.46673785,-0.05074568,-0.17668475,-0.22934953,-0.16061784,-0.2483342,-0.17191598,-0.2427377,-0.16747231,-0.24949786,-0.15243489,-0.15659259,-0.18566431,-0.19343372,-0.19546527,-0.08621843,0.005756757,0.702981,1.2535867,1.3877505,1.6109385,1.5605677,1.5081773,0.75320286,0.51957738,0.82808171,1
1.2850627,-1.3240126,-3.1626471,-4.6300865,-4.3752618,-3.3060723,-1.8538863,-1.3558814,-0.8036014,0.18781883,0.23495105,0.27419805,0.4085799,0.3818767,0.25158333,0.31991684,0.27170028,0.19311157,0.17687393,0.27301274,0.12973276,0.17737346,-0.00516482,-0.018650438,-0.17353907,-0.22668723,-0.1855129,-0.25586515,-0.43099067,-0.49638957,-0.54786809,-0.74128581,-0.88278564,-0.80036707,-0.85539971,-0.96810082,-0.86852844,-0.71488951,-0.81928471,-0.77502574,-0.69783942,-0.70010954,-0.56554028,-0.36058668,-0.19479053,-0.14274609,0.011220383,0.070600236,0.079278664,0.089218822,0.25896555,0.1916376,0.087811379,0.27748757,0.31719569,0.18459902,0.20210378,0.24012842,0.31699698,0.20762964,0.18935028,0.28095848,0.26946226,0.3542034,0.36204691,0.39331193,0.40523061,0.43981631,0.52241495,0.58155363,0.57264531,0.57156353,0.57344881,0.71959491,0.58392089,0.52634174,0.61163406,0.41277967,0.61952331,0.54157217,0.46525956,0.51540361,0.45670227,0.44019133,0.36709326,0.31026889,0.33512329,0.34622457,0.28818844,0.23053974,0.199544,0.2532747,0.23694575,0.38953107,0.43168879,0.6154901,0.79846602,0.94798854,1.1727984,1.3609357,1.715135,1.9092043,2.1365979,1.9575032,1.781976,1.730982,1.398883,1.0893567,0.92050151,0.44649854,0.032158696,-0.32061768,-0.70240559,-0.76702302,-0.71000095,-0.85185218,-0.83047056,-0.80592346,-0.80587255,-0.87189352,-0.87119869,-0.85612439,-0.86641044,-0.83581116,-0.93663149,-0.85060509,-0.71988352,-0.44133758,0.24442525,0.69480516,0.46540926,0.42658403,0.751764,0.73702551,0.44589152,0.41974248,1.1910254,1.1054925,0.16937299,-2.2805729,1
0.69025425,-0.56060788,-1.5197631,-2.8371305,-3.7311933,-4.1893624,-3.7415606,-2.774341,-1.6778344,-1.3458989,-0.8535126,-0.30943906,-0.27682789,-0.30927065,-0.33147944,-0.37861,-0.47977019,-0.34651861,-0.24163068,-0.27573696,-0.22134626,-0.38039275,-0.51576382,-0.43445836,-0.40563492,-0.35674887,-0.45661431,-0.51140489,-0.58363762,-0.62563782,-0.71973603,-0.73676067,-0.68433448,-0.70242622,-0.78637723,-0.78101486,-0.71248486,-0.7268434,-0.82673742,-0.7426826,-0.6841101,-0.82657144,-0.76034233,-0.58050877,-0.52693328,-0.57258733,-0.42934253,-0.29955688,-0.37636149,-0.37433102,-0.28226071,-0.25783828,-0.3115732,-0.20817325,-0.24214251,-0.20945215,-0.063275955,-0.072970524,-0.18564585,-0.23517689,-0.3406969,-0.039102865,-0.053329027,-0.090811753,-0.082704698,-0.090437735,-0.025779034,-0.036293516,-0.030118122,-0.019571201,-0.012934172,0.071011666,0.19527148,0.24533274,0.33637348,0.31248296,0.25641069,0.32670947,0.36101925,0.52872025,0.54182974,0.28407792,0.29471822,0.37358317,0.57247521,0.59994056,0.56444924,0.49514696,0.36575989,0.43619419,0.46032977,0.44527318,0.50152109,0.45863103,0.48109743,0.61455103,0.83876025,1.0213707,1.2349535,1.4725006,1.6297429,1.8557209,1.9687045,2.1245126,2.0712298,1.9701617,1.6780143,1.5360321,1.4518632,1.2840097,1.0351931,0.71596854,0.28433977,-0.047533482,0.08564477,0.098570308,-0.032979575,0.010549097,0.15166584,0.23572445,0.12058655,0.12189254,0.20938434,0.1565351,0.13348656,0.2582172,0.34775316,0.31860371,0.55563597,1.1777692,1.9327623,1.8646407,1.4513659,1.1313021,0.68328809,0.37068552,0.072204884,-0.24290113,0.27340518,-0.01204333,1
0.38852007,-1.7439379,-3.6273369,-4.3320262,-4.2261757,-3.7127036,-2.6856194,-1.3781123,-1.2941862,-1.0446223,-0.45618978,-0.26964668,-0.17517364,-0.24935888,-0.30188831,-0.31932728,-0.14979225,-0.018229023,-0.25087488,-0.40270022,-0.3677206,-0.29761158,-0.34039276,-0.37291444,-0.39987036,-0.46367296,-0.59947929,-0.59049866,-0.41054373,-0.62242659,-0.76422495,-0.7892231,-0.72979202,-0.6385805,-0.70110729,-0.69807598,-0.66682604,-0.94008784,-0.83583735,-0.53935557,-0.47083165,-0.46790541,-0.50739131,-0.38995736,-0.34020014,-0.22432451,-0.078877086,0.041364064,-0.091217896,0.039900761,0.20380205,0.081324216,-0.19770653,-0.17478162,0.059011527,0.091140771,0.15191347,0.20649238,0.14352872,0.050970772,-0.10664101,0.081009997,0.14254666,0.037750589,-0.13137378,-0.039588038,0.15637455,0.27572746,0.47340107,0.65262845,0.43668498,0.18294645,0.29089269,0.54418868,0.56630501,0.56890531,0.51759163,0.44365084,0.46182785,0.45565475,0.56857002,0.43976085,0.44192814,0.54715277,0.4157437,0.47465371,0.32410707,0.38391288,0.40220134,0.45776514,0.3813491,0.28683745,0.31314751,0.32461614,0.3929578,0.35139901,0.34609367,0.6647867,0.90841856,1.0955354,1.184107,1.1879014,1.5175157,1.686361,1.8537839,1.8666603,1.8788566,1.6911911,1.6145344,1.3289029,0.8846707,0.75205033,0.55458239,-0.013938985,-0.34654379,-0.28231602,-0.050430496,-0.067528878,-0.25499333,-0.2152201,-0.14051415,0.063446508,-0.14036896,-0.12916127,0.011839072,-0.073031487,-0.2889394,-0.21429372,-0.066278452,0.32370555,0.94693685,1.1959132,1.4273205,1.5134221,1.346399,1.1815084,0.85485635,0.80713605,0.65978962,-1.6898852,1
-1.726934,-4.3630304,-4.9501566,-4.4819077,-3.5314117,-2.0606926,-1.6374241,-1.233676,-0.43848025,-0.29916561,-0.26369674,-0.2814693,-0.14452099,-0.22534361,-0.19437357,-0.20587189,-0.24557843,-0.23810838,-0.24381639,-0.32603439,-0.34491475,-0.34900881,-0.34274814,-0.39461861,-0.47904139,-0.53147262,-0.48798632,-0.52565748,-0.66929021,-0.67315121,-0.79375108,-0.81729931,-0.82956822,-0.92898252,-0.81331175,-0.82086213,-0.78429452,-0.78961213,-0.73401881,-0.71742701,-0.79235715,-0.49846383,-0.47385134,-0.30810556,-0.11842689,-0.13741281,-0.022423951,-0.000235115,0.095796144,0.092161841,0.16904098,0.21606696,0.19883004,0.16683781,0.23964094,0.24865884,0.19746381,0.23249557,0.29362896,0.21112426,0.35869157,0.36063636,0.28883568,0.36117137,0.39870974,0.52671321,0.46519998,0.55621626,0.6258168,0.59724397,0.66859766,0.72428642,0.74547114,0.63481726,0.69359346,0.7396187,0.65936719,0.61431599,0.60128711,0.55576876,0.46644332,0.41423383,0.47537583,0.3868106,0.43875767,0.42150327,0.36971149,0.40741604,0.32855086,0.39167091,0.37086275,0.33634873,0.269677,0.2948879,0.30918236,0.42165173,0.51473916,0.5939169,0.82286052,0.85960365,1.0320964,1.0429222,1.2236673,1.3870115,1.5248873,1.2548434,1.007458,0.85083625,0.71747516,0.65937956,0.63022587,0.31037921,0.010310621,-0.1076112,-0.29092922,-0.32103752,-0.34171109,-0.25431132,-0.20887748,-0.19313646,-0.11271694,-0.21397676,-0.30141556,-0.36536681,-0.31050297,-0.2154853,-0.19964576,-0.19773475,-0.033530519,0.15779313,0.75012438,0.9324673,1.0909033,1.44894,1.4610454,1.3431871,1.2458735,1.2024092,1.8654323,0.35599832,1
0.33030335,-1.0521127,-2.5502557,-3.774951,-4.1927968,-3.9670527,-3.4676028,-2.3426257,-1.7060199,-1.5642617,-0.88972901,-0.38926443,-0.31200555,-0.37492616,-0.34680401,-0.27386708,-0.34196777,-0.29163702,-0.36330659,-0.33856948,-0.30592243,-0.37822285,-0.38467553,-0.40796427,-0.40022743,-0.3970725,-0.42054459,-0.55518965,-0.64655186,-0.65582199,-0.66726367,-0.67805603,-0.77835212,-0.76521817,-0.68270594,-0.75373504,-0.80347112,-0.76959852,-0.69312848,-0.76770073,-0.72631818,-0.7217449,-0.58619548,-0.44131912,-0.36072583,-0.30494198,-0.28956887,-0.16891761,-0.10253603,-0.018839743,-0.062355661,-0.092952042,-0.082488667,-0.061461758,-0.097553045,-0.12660395,0.038544424,0.040137937,0.009527408,0.002904865,0.10972428,0.041304992,0.003299363,0.049164989,0.069894209,0.11733072,0.09642705,0.15072626,0.19040472,0.24688715,0.30210826,0.36653773,0.40140476,0.4499707,0.40892112,0.46585163,0.54782226,0.62979862,0.58370744,0.61788342,0.60551332,0.53827386,0.52429578,0.44735839,0.57204486,0.58678124,0.60526011,0.58441232,0.51837272,0.45606672,0.47681259,0.59022382,0.57130687,0.76384554,0.89081581,1.0198825,1.1131756,1.1700575,1.32469,1.5554861,1.6985795,1.8028809,1.6953112,1.7296895,1.5824146,1.5276448,1.3161719,1.1097423,0.92468373,0.62328227,0.30206282,0.057758071,-0.009605339,-0.15106951,-0.14333739,-0.086279804,-0.11760599,-0.10541474,-0.11590185,-0.094725288,-0.073944419,-0.19696735,-0.11962493,-0.073367498,-0.059786162,-0.08801263,0.020299671,0.3093623,0.75643852,1.106879,1.0467116,1.134791,1.1865047,1.0846584,1.0324217,0.92527454,1.0416807,1.166651,0.64857924,-0.88439234,1
0.064649505,-2.0635115,-3.6803512,-4.4033962,-3.8837226,-2.872331,-1.8526075,-1.5148288,-1.1838691,-0.51694235,-0.26417371,-0.3371733,-0.34622979,-0.31521007,-0.28930465,-0.3405529,-0.42746227,-0.42104172,-0.38871005,-0.36350388,-0.37956947,-0.5138636,-0.55354108,-0.52556105,-0.5324337,-0.58505388,-0.64236676,-0.67189832,-0.73372001,-0.83191518,-0.85038176,-0.92396821,-1.0192767,-0.97438204,-0.99383753,-1.0429027,-1.061983,-0.94942975,-0.95391835,-0.90966033,-0.67372111,-0.63280494,-0.53279332,-0.44585738,-0.33225645,-0.24275115,-0.13099441,-0.13274702,-0.11701963,-0.10500693,-0.020003576,-0.10546276,-0.092800113,0.023441031,0.057966792,-0.002620564,0.045600955,0.094346145,0.11160378,0.096921442,0.093905304,0.16513164,0.11014468,0.105744,0.22237916,0.28739723,0.30056471,0.33912689,0.3787157,0.47911319,0.51958834,0.55749672,0.52392667,0.53954176,0.51661646,0.54061246,0.62993392,0.4373427,0.48707273,0.52386707,0.40446579,0.41218831,0.46334306,0.44759031,0.4353681,0.43959742,0.42852118,0.31151989,0.36636566,0.36752099,0.35877715,0.33449836,0.3007694,0.37117533,0.40067145,0.46543669,0.64515316,0.78605251,0.99119304,1.0227568,1.1612983,1.4441559,1.7577204,1.9445395,1.8827305,1.8730469,1.6805965,1.4891243,1.2568208,1.0375186,0.60889977,0.33943748,0.03429913,-0.16281532,-0.19118003,-0.2634258,-0.25117501,-0.2611491,-0.22777332,-0.24119738,-0.1959331,-0.28875329,-0.2287008,-0.22792828,-0.2087804,-0.19833567,-0.15900867,-0.12002314,0.001531773,0.65670434,1.2258818,1.2614691,1.4005861,1.7484029,1.8384652,1.4853332,1.1549329,1.4284818,1.4446975,-0.25478572,1
-0.61042884,-2.3916415,-3.2035154,-3.6416487,-4.0021416,-4.0726889,-3.3563628,-2.1648791,-1.6263306,-1.2603984,-0.6738149,-0.36796215,-0.36711553,-0.4264064,-0.40653865,-0.28004072,-0.34278062,-0.3177846,-0.26621709,-0.31594275,-0.26151525,-0.33780856,-0.23965034,-0.23660573,-0.28838705,-0.16427921,-0.17846664,-0.19587681,-0.23509564,-0.19589887,-0.19851755,-0.21189595,-0.24096491,-0.12250334,-0.099209521,-0.283367,-0.24407204,-0.29185636,-0.28995087,-0.16676331,-0.19508694,-0.1468569,-0.043915761,-0.008792231,0.000280122,0.033871358,0.049521284,0.039397908,0.0668162,0.089613982,0.053444583,0.07561243,0.10347927,0.01783788,-0.006908934,-0.085702911,0.015088569,0.046306473,-0.069721412,-0.075090321,0.14067088,0.21206806,-0.072132098,0.1400702,0.16983286,0.21305382,0.27637646,0.18612351,0.18981186,0.2631664,0.52765606,0.4919232,0.4308234,0.49304497,0.5037555,0.61432894,0.53434596,0.64549345,0.68436951,0.58967126,0.68867816,0.70290642,0.68061293,0.568156,0.43843634,0.56820695,0.47434651,0.40351853,0.29809778,0.37726621,0.40366331,0.47109179,0.42159439,0.37909029,0.50312334,0.80631235,0.97927084,1.0730055,1.2486454,1.3689443,1.6430288,2.051672,2.0900309,1.9808815,1.8433088,1.6766405,1.5960672,1.4731881,1.2197147,0.94414649,0.59614785,0.24523314,0.00595751,-0.095782763,-0.3073077,-0.23349789,-0.27275312,-0.38429092,-0.30769478,-0.3400641,-0.30021595,-0.2185597,-0.22519202,-0.35987865,-0.31216856,-0.27359953,-0.23635122,-0.19058398,0.12629937,0.88212554,1.6296815,1.3058542,0.93500057,0.50958328,-0.25242806,-0.99538356,-1.2212384,-1.0197127,-0.074368853,-0.60478138,1
0.013182577,-1.9829278,-3.1566245,-4.0184414,-4.1403528,-3.5391774,-2.3499981,-1.8729717,-1.4978695,-0.67874758,-0.40136297,-0.43360608,-0.2800819,-0.44390861,-0.37713875,-0.37156822,-0.32456082,-0.43007932,-0.47272435,-0.4601919,-0.40465525,-0.39127156,-0.43846526,-0.64089622,-0.59828347,-0.60268942,-0.62050214,-0.54819037,-0.6702741,-0.75505089,-0.72154735,-0.92128129,-0.89808985,-0.80715641,-0.93277352,-0.90926148,-0.86666274,-0.94240263,-0.95005005,-0.79007236,-0.70451281,-0.55075029,-0.52774447,-0.50629147,-0.39707585,-0.22522211,-0.24824392,-0.083891968,-0.16568674,-0.045524144,0.007853129,-0.073182326,-0.058990871,0.019768941,-0.071064964,-0.023353575,0.0168919,0.071855081,0.1240007,0.061506725,0.10785756,0.080733467,0.10054035,0.25281154,0.42116192,0.45330148,0.17606765,0.15886943,0.319236,0.43485691,0.53653298,0.54848603,0.52663089,0.51263423,0.58146095,0.59109815,0.57096624,0.51221691,0.57389082,0.63476227,0.45676503,0.43528481,0.50836429,0.37139686,0.39486962,0.55264207,0.41527495,0.37386308,0.40262664,0.34663176,0.50817113,0.58822506,0.47878787,0.50366486,0.41943696,0.46161272,0.57680702,0.77267149,0.98960413,1.0475692,1.1936847,1.3256038,1.5731592,1.8536912,1.863811,1.8795451,1.7481756,1.5758383,1.3920469,1.1758197,0.81506309,0.53686779,0.15862127,-0.020903899,-0.002280622,-0.19082417,-0.17644871,-0.13463009,-0.12467646,0.050140593,-0.1350452,-0.024351268,-0.13676503,-0.30421699,-0.17434047,-0.15062987,-0.073426857,-0.058694849,0.096168191,0.70667515,1.3728142,1.4176504,1.6160621,1.9764796,1.7900383,0.8860039,0.2784562,0.41379773,1.0176067,-0.69658495,1
-1.5976588,-3.4139541,-3.8860498,-3.9092639,-3.7314071,-3.2620113,-2.3371835,-1.4425703,-1.1766914,-0.83210212,-0.30155889,-0.11447505,-0.22969788,-0.27252359,-0.22321417,-0.22904095,-0.21031346,-0.18204281,-0.24826957,-0.24750692,-0.21159698,-0.35102227,-0.4022978,-0.38963466,-0.36371814,-0.32772432,-0.25466393,-0.32382295,-0.40526032,-0.6800595,-0.60570918,-0.16185036,0.038777617,0.24031413,0.10242392,0.20834425,0.089410071,0.084608232,0.19681363,0.18276396,0.13485017,0.20725133,0.23845699,0.25608294,0.34430692,0.31299835,0.2242365,0.28437775,0.42170223,0.38268849,0.47037578,0.40595723,0.33918418,0.15432786,0.2429911,0.25619457,0.22221897,0.2135533,0.18310126,0.012980505,0.10126455,0.11320807,0.12440246,0.20455183,0.1345539,0.1322501,0.084063272,0.046843859,0.057797754,0.021416742,0.072561101,0.12155649,0.12787835,0.14754108,0.37197542,0.22400342,0.19073133,0.13350638,-0.11639676,0.15694529,0.33078927,0.2273472,0.39131104,0.60747527,0.52720505,0.69978315,0.8005946,0.73579333,0.71298434,0.66895523,0.78262153,0.96988297,0.99381225,1.1259666,1.189942,1.4170811,1.7416732,1.8986299,1.975131,1.966317,1.9390868,1.8126263,1.6277834,1.4971209,1.4538019,1.0624689,0.73403565,0.54066843,0.20497765,-0.09379527,-0.15436729,-0.19308008,-0.1255313,-0.16115537,-0.17576052,-0.16993669,-0.1923807,-0.19541809,-0.23409542,-0.24731263,-0.34665653,-0.10149806,-0.1737108,-0.2051433,-0.30105806,-0.13905319,0.30531463,0.76779559,0.93319063,0.66037717,0.38270713,-0.005789581,-0.43522404,-0.65075407,-0.56212756,-0.66730694,-0.17734918,-0.42752332,-1.2617259,-2.8645482,1
0.30808027,-2.3541313,-4.0525743,-4.5475812,-3.8726349,-2.873448,-1.9329046,-1.7957404,-1.3965563,-0.70482047,-0.73088073,-0.60105557,-0.42068076,-0.21136206,0.03507692,-0.1272263,-0.24103568,-0.10511095,-0.22492092,-0.49772221,-0.52415799,-0.28301006,-0.2795195,-0.35672027,-0.24068155,-0.3414659,-0.55752434,-0.64117602,-0.65700476,-0.64726028,-0.58283336,-0.62496745,-0.7886549,-0.90673712,-0.798186,-0.63466632,-0.68742648,-0.76510612,-0.72755715,-0.67568331,-0.68226355,-0.50875859,-0.47790191,-0.4148515,-0.085157893,-0.16763653,-0.15446904,0.067040559,0.16529814,-0.2075868,-0.036048928,0.31903884,0.28471306,0.11904139,-0.10738751,0.094809886,0.055324648,0.003567301,0.22795677,0.30230249,0.20126304,0.30580333,0.38482403,0.55714031,0.32524096,0.36532699,0.49265603,0.52982748,0.89132103,0.40439403,-0.023198053,0.19868848,0.4402535,0.29372191,0.38464827,0.3057255,0.23217768,0.42219932,0.52378267,0.23085933,0.02362713,0.12007065,0.22873233,0.1842748,0.29060903,0.22595401,0.025780555,0.060479925,0.17954649,0.19799996,0.11417972,-0.064750161,0.090026727,0.14481757,0.40145721,0.51971074,0.35739605,0.37908948,0.50336608,0.84633378,1.1533566,1.6053567,1.6453644,1.6882146,1.8354657,1.9155649,2.0263964,1.653657,1.1269405,1.133856,0.88405709,0.35252786,0.082724641,-0.094780035,-0.29230616,-0.38483345,-0.30392013,-0.21404079,-0.09034605,-0.18613116,-0.11870672,-0.10794983,-0.24234871,-0.38690047,-0.28406179,-0.17084651,-0.28951951,-0.046205506,0.10130056,0.048228159,0.72697557,0.85831031,0.85557196,1.0119912,0.94544198,1.2162854,1.4477331,1.5045875,2.6673215,1.7008469,1
1.8885029,-0.40915705,-2.1700721,-3.2675444,-4.2494196,-3.6871064,-2.3588657,-1.6520948,-1.5222669,-0.6119483,0.15928613,-0.046376241,0.11615221,-0.02853676,0.022469216,0.059062923,-0.11394985,-0.076747918,-0.124939,-0.12340618,-0.14013978,-0.21705978,-0.36356796,-0.34133028,-0.21474333,-0.37747649,-0.49464262,-0.54399714,-0.74032137,-0.71733457,-0.79476433,-0.84171645,-0.92373907,-1.0714983,-1.1578817,-1.281785,-1.2300781,-1.1515448,-1.2155764,-1.248145,-1.2511749,-1.2090378,-0.90558471,-0.83835438,-0.66917656,-0.55004535,-0.47807329,-0.29030912,-0.21393641,-0.18143334,-0.046085294,-0.11973109,-0.03285935,-0.077111936,0.032626829,0.14251126,0.191486,0.041996118,0.029044936,0.27304787,0.19162881,0.17969462,0.20987384,0.17800571,0.26373252,0.29112935,0.37133185,0.31738917,0.40529508,0.42651763,0.5362719,0.60553034,0.5601792,0.54290145,0.56206609,0.6054862,0.59216196,0.53920168,0.62474796,0.63101431,0.56370728,0.53646395,0.45772739,0.58799682,0.50958084,0.54111447,0.41444287,0.3082569,0.29432102,0.37099267,0.28175103,0.25896608,0.24541127,0.17490559,0.22618539,0.18629374,0.220413,0.27581693,0.22292995,0.32193605,0.23677943,0.58258904,1.0328042,1.0880001,1.1193448,1.26895,1.5814287,1.954127,1.9857157,1.9779435,1.6762677,1.4750613,1.2039109,1.0075615,0.74393697,0.1614324,-0.20484608,-0.4280467,-0.44003093,-0.46817173,-0.36943252,-0.45235653,-0.4467761,-0.52554415,-0.48863719,-0.52690281,-0.45048144,-0.44520892,-0.44539095,-0.3714413,-0.35075286,-0.16730732,0.44985936,1.1084716,0.89801826,1.5750849,2.3229921,2.4296594,1.5933765,0.8911401,1
0.44261018,-1.7488487,-3.3849181,-3.9443152,-3.7280475,-3.4029523,-2.5983115,-1.7696558,-1.6707589,-1.1307873,-0.60321024,-0.56012793,-0.52980147,-0.52478902,-0.52660778,-0.54306288,-0.54045637,-0.60007841,-0.60441451,-0.55341472,-0.60927667,-0.71837604,-0.68272864,-0.64939966,-0.63162996,-0.68462024,-0.66851343,-0.70389797,-0.76498812,-0.79074639,-0.73512403,-0.78327811,-0.86329935,-0.84432763,-0.89710622,-0.96576209,-0.93278633,-0.85211871,-0.94387272,-0.88860159,-0.84818753,-0.79869691,-0.70723497,-0.65299071,-0.49910589,-0.4733705,-0.36169345,-0.256951,-0.23384748,-0.20601004,-0.14205561,-0.16129492,-0.13681651,-0.10832287,-0.047595549,-0.094285777,-0.048824702,0.061663204,0.051566702,0.095326494,0.079280929,0.1464217,0.18121021,0.24131443,0.26303304,0.26551772,0.36717124,0.27682698,0.39762922,0.42359338,0.42959836,0.42560933,0.56554035,0.55783821,0.51090182,0.59563068,0.54147065,0.54374137,0.50463298,0.5312482,0.50379578,0.52722355,0.40296743,0.48104313,0.5191313,0.49602419,0.51497781,0.53037337,0.49421608,0.45506344,0.51604222,0.40896422,0.54189492,0.54502612,0.49708648,0.60454872,0.77056352,0.86742145,1.047405,1.1329919,1.3558315,1.5343513,1.7182589,1.7178457,1.6398676,1.6059042,1.4852413,1.3766083,1.2072026,0.90065821,0.70823271,0.34682324,0.16835101,0.16257318,0.022592494,0.07814922,0.032383742,0.027544673,0.071036724,0.10140749,0.1051364,0.073637101,0.17529242,0.044822991,0.015506654,0.037759246,0.020791589,0.15943343,0.42071969,0.7490685,1.080636,1.0611819,1.0709951,1.1810339,1.2368934,1.0838935,1.2010428,1.6659825,2.0330773,0.31839035,1
1.4957655,-0.59428146,-3.0125206,-4.2017867,-5.1342656,-4.5651055,-2.7773968,-1.85936,-1.3355663,-0.062143202,0.50380902,0.47029678,0.37379597,0.38088739,0.48639994,0.54149094,0.43532255,0.32340296,0.25159069,0.40090228,0.12482348,-0.051726,0.060404952,-0.034190439,-0.26830241,-0.16001106,-0.15084178,-0.16580691,-0.24501407,-0.4962306,-0.54807223,-0.53611629,-0.59133323,-0.55039461,-0.7687036,-0.65938465,-0.8058189,-0.88535957,-0.63884151,-0.66600023,-0.55440014,-0.56730358,-0.44155356,-0.45412044,-0.28654894,-0.12432662,0.034026938,0.065163913,0.15520399,0.26770416,0.17206842,0.20292703,0.17567789,0.21661528,0.23070617,0.36942921,0.296738,0.17725515,0.28699281,0.27835471,0.34558153,0.22706775,0.50243019,0.22440493,0.59102325,0.59807334,0.38312497,0.58403017,0.79939589,0.80444225,0.64681782,0.81007833,0.86703901,0.91870327,0.75143293,0.93101156,0.97779803,0.79422577,1.0243512,0.99920845,0.78510288,0.72849737,0.8605381,0.63822486,0.58008816,0.64218721,0.49700462,0.50242671,0.45246151,0.52942999,0.39273347,0.18435063,0.43233825,0.41103725,0.26687712,0.21004706,0.035316522,0.28098452,0.22995259,0.062612737,0.27709104,0.19066428,0.045927403,0.15222733,0.13240266,0.48318959,0.76063225,1.129207,1.2928647,1.2517648,1.028785,0.8286999,0.58682492,0.30994205,0.67581925,0.38469926,-0.15125307,-0.66319009,-0.85193538,-0.85092324,-0.79469106,-0.76285356,-0.98518795,-0.74864474,-0.8297382,-0.93415596,-0.96976389,-0.79935044,-0.91081795,-0.83991919,-0.77048971,-0.60259236,0.50493936,0.828545,1.1382576,1.3901712,1.2315072,1.0189097,-0.14348342,-0.12146218,1
2.0259583,0.56073371,-1.6533327,-3.0204207,-4.1515219,-3.8310484,-2.5881347,-1.7552737,-1.6133408,-0.71593526,0.024673009,-0.081993809,0.022853248,-0.1271701,-0.058500954,0.015487933,-0.17875128,-0.13797602,-0.17563446,-0.213007,-0.33890971,-0.27296911,-0.3068538,-0.34701345,-0.4158712,-0.52560117,-0.55897585,-0.64233173,-0.72726128,-0.79109888,-0.83340385,-0.9015121,-1.0410941,-1.0010397,-1.1048271,-1.1313978,-1.0460766,-1.0181646,-1.0587963,-1.0867368,-0.97930883,-0.99807178,-0.87090115,-0.69522316,-0.64903456,-0.57425575,-0.42766065,-0.29753956,-0.23396202,0.077421024,-0.060932527,-0.078097302,0.054119194,0.080829707,0.037935071,0.0625954,0.2070633,0.088820912,0.26233078,0.28477039,0.28145875,0.24750893,0.27784356,0.31276186,0.31080843,0.48271677,0.34980642,0.40390072,0.56645542,0.48598384,0.57592492,0.55062013,0.48735831,0.40020954,0.60077601,0.63749752,0.56702485,0.53470614,0.58419129,0.47026847,0.62019886,0.40438518,0.35808444,0.39524442,0.35479209,0.33373429,0.24394281,0.3305514,0.31655259,0.35090937,0.33732913,0.2933352,0.2205058,0.24557383,0.19403882,0.18929839,0.11320685,0.17467812,0.24436304,0.20683527,0.41550569,0.66159724,1.1270707,1.1652143,1.2183988,1.4112915,1.9112064,2.0338664,2.142291,2.0058555,1.4753893,1.6240714,1.2772517,0.80248189,0.41509963,-0.16197519,-0.54373229,-0.48024939,-0.58025846,-0.66774538,-0.69077625,-0.57335109,-0.55179702,-0.64907149,-0.42357189,-0.40825555,-0.43370931,-0.49608605,-0.54474805,-0.49467485,-0.36035996,-0.1446699,0.5492272,0.77114209,1.0616244,1.8555009,2.392024,2.3805985,1.1359161,0.82839835,1
-2.0552117,-3.1833863,-3.4220817,-3.6815649,-3.8341248,-3.6707644,-3.1652434,-2.305184,-1.7163613,-1.514777,-1.0987368,-0.74896449,-0.63747959,-0.62053427,-0.62934962,-0.5972502,-0.67421366,-0.59866512,-0.60038992,-0.58568377,-0.5141189,-0.49668864,-0.50782638,-0.40954384,-0.34524188,-0.28147666,-0.24651119,-0.32517463,-0.3008023,-0.25591342,-0.2027423,-0.28164629,-0.29728571,-0.33421419,-0.31717055,-0.28273219,-0.24437515,-0.24571638,-0.28265241,-0.25130235,-0.23995527,-0.18338005,-0.16524905,-0.032620393,-0.024613155,-0.028976052,-8.50356e-05,0.1285581,0.14072008,0.16087619,0.10210159,0.11243992,0.070736118,0.073023645,0.16535401,0.18035093,0.080024799,0.12844944,0.10294994,0.044772157,0.055237125,0.095506358,0.18160401,0.15091822,0.17330934,0.14955799,0.14648062,0.20983319,0.2534639,0.25626021,0.29986303,0.3473381,0.42367332,0.45760847,0.49481482,0.51746672,0.56196466,0.53619552,0.55974601,0.68553631,0.72313028,0.71792655,0.64639439,0.70180656,0.74978267,0.71223416,0.62842414,0.67005109,0.71798553,0.66964809,0.68233829,0.74060741,0.7609982,0.89023826,1.1245247,1.120413,1.1712335,1.4100814,1.5325869,1.6065801,1.6308731,1.6377199,1.5887403,1.5056788,1.4909466,1.3609581,1.1696591,0.99431918,0.93180921,0.63377043,0.32194395,0.32753347,0.17023493,0.17901093,0.13965058,0.085300315,0.046255778,0.12348485,0.03661988,-0.049117074,0.019298714,0.007044698,0.061626625,0.11338944,0.12484612,0.10580663,0.15179814,0.39966997,0.65826699,0.84848024,0.82852774,0.70346056,0.34878401,-0.022968891,-0.23545995,-0.38007016,-0.27390425,-0.058592387,-0.17865548,-1.1324795,1
0.62545527,-1.9514729,-3.2600943,-4.0340196,-4.1935556,-3.6382467,-2.4461539,-1.6775406,-1.4476438,-0.74280169,-0.39268849,-0.38950266,-0.24134038,-0.1904487,-0.22753443,-0.20338984,-0.32042801,-0.34064543,-0.37691512,-0.33242009,-0.40298639,-0.45607423,-0.44993134,-0.50187782,-0.53734312,-0.53139394,-0.57027241,-0.68294327,-0.61022178,-0.711493,-0.84715873,-0.82118333,-1.0073965,-0.95824745,-0.96788694,-0.9708756,-0.9208596,-0.99778703,-0.87885741,-0.88777629,-0.6802511,-0.58405667,-0.54507033,-0.37533793,-0.44153868,-0.34461344,-0.18200736,-0.15574083,-0.11547844,-0.16918027,-0.15687396,-0.10866916,-0.10481378,-0.027990732,0.057002498,0.09898854,0.14938628,0.10714761,0.090730195,0.15805617,0.12268806,0.10392489,0.12587507,0.30696967,0.34977324,0.24656124,0.28441225,0.3893463,0.51661739,0.46821329,0.43860596,0.50593453,0.61434652,0.61180224,0.47798123,0.61675456,0.61644131,0.52447744,0.54768773,0.56408756,0.5626759,0.51604157,0.55162451,0.4476068,0.42722721,0.47419562,0.42905877,0.40956062,0.38060431,0.38137158,0.27264376,0.13856105,0.20491731,0.31072659,0.30956476,0.32049105,0.43056607,0.57300793,0.72869826,0.99814635,1.0532986,1.2514531,1.4148682,1.6220277,1.871007,1.7586882,1.6738808,1.6083337,1.3817427,1.2161092,0.9697551,0.66996959,0.33725378,0.027896516,-0.20870571,-0.24570622,-0.22492546,-0.25809815,-0.21466575,-0.20926493,-0.21839856,-0.23220152,-0.23529561,-0.26729903,-0.24565823,-0.20477003,-0.2478437,-0.16147154,-0.15297919,0.081575135,0.71517785,1.2027004,1.1113667,1.3570709,1.5422132,1.4027813,1.3069273,0.99326984,1.8352817,1.4471092,1
1.5836336,0.33344314,0.30220897,-0.14007941,-0.22431371,0.14990443,0.98284147,0.47367431,-1.1782481,-1.1335348,-1.0574482,-0.57695998,-0.13400702,-0.21368587,-0.39066548,-0.50355558,-0.61941787,-1.2973527,-1.700685,-1.4433736,-1.7890066,-1.9283533,-1.903476,-2.0000261,-2.1490082,-2.1862185,-2.2000225,-2.3449864,-2.1647242,-2.1910546,-2.1688043,-1.8752048,-1.8253191,-1.7517743,-1.6791112,-1.5101468,-1.3760376,-1.2221677,-1.0669774,-0.80842664,-0.55236002,-0.44321016,-0.30288082,-0.026452817,0.083002366,0.16583963,0.27185116,0.32108565,0.36636629,0.47671234,0.55946312,0.47878197,0.69811976,0.62874218,0.57151316,0.57149962,0.4171421,0.45040968,0.40543873,0.38257313,0.41524325,0.3115726,0.40636411,0.2494621,0.32351927,0.30275597,0.32144291,0.20512068,0.10431656,0.16344383,0.14057917,0.22531548,0.28563528,0.22536347,0.25137494,0.28782828,0.21364511,0.18999728,0.2882863,0.24712134,0.26867896,0.093382561,0.12275277,0.34362487,0.29613637,0.22482111,0.060210763,0.050950126,0.24248672,0.27226111,0.24293548,0.24678522,0.19120465,0.15345896,0.22974422,0.23691534,0.30440571,0.25570408,0.10056657,0.1560417,0.17197028,0.23427451,0.23041637,0.29535649,0.25259788,0.17139821,0.34203152,0.4051213,0.87133852,1.2193126,1.5225307,1.8433822,2.2292743,2.3629675,2.2584961,2.18641,1.9856344,1.6200911,1.0876653,0.46911554,-0.1374035,-0.36408485,-0.3393018,-0.21922189,-0.38548222,-0.35110276,-0.25967949,-0.20750212,-0.1623998,-0.25893992,-0.23800525,0.30984316,1.3059197,1.2631609,0.80044626,0.95450712,1.098003,0.99423523,1.1628119,1.4281871,1
-1.6532282,-3.5922199,-4.2810251,-4.4032012,-3.2975183,-2.1742052,-1.6894371,-1.1564705,-0.38422203,-0.18351728,-0.21975357,-0.2096938,-0.17056788,-0.17167593,-0.11251623,-0.24272145,-0.22924186,-0.24107094,-0.19464263,-0.22442858,-0.25605238,-0.19220627,-0.27577732,-0.24702386,-0.3762284,-0.34106492,-0.3272295,-0.41572963,-0.48052631,-0.44555956,-0.50511677,-0.55580657,-0.59602162,-0.59344478,-0.65395948,-0.60902608,-0.63403413,-0.56651612,-0.43226512,-0.37610732,-0.30270197,-0.20354756,-0.065619744,-0.004731701,0.078654699,0.14217615,0.22293122,0.27042358,0.31449968,0.33385129,0.34130657,0.36582288,0.31025953,0.34690663,0.34711077,0.38846079,0.3475141,0.41704659,0.39302887,0.39212279,0.47623301,0.56294463,0.50829151,0.53721173,0.46000348,0.58329246,0.61431781,0.67159773,0.72997831,0.67718423,0.76487278,0.77915599,0.84125155,0.77748824,0.9159857,0.83880908,0.86526165,0.83358221,0.83977034,0.85924576,0.77112797,0.74618292,0.65716356,0.70250281,0.68269527,0.66286563,0.59813157,0.64455414,0.59775438,0.54222645,0.51313063,0.45584073,0.43052672,0.45375159,0.43421559,0.36092004,0.40748931,0.4549425,0.49641388,0.61776946,0.76642654,1.0284513,1.0598275,1.271048,1.5315021,1.795315,1.8061618,1.8558106,1.7009247,1.3786006,1.1417754,0.86872854,0.48944968,-0.067342417,-0.35817338,-0.38931217,-0.42188228,-0.48691834,-0.55040984,-0.53527639,-0.57054324,-0.56252246,-0.56210535,-0.62835773,-0.49018927,-0.56441574,-0.56770246,-0.62023599,-0.53195956,-0.31218942,0.36448672,0.69076528,0.41243746,0.21230767,-0.39915144,-0.8844237,-0.92777203,-0.22415466,-0.46873624,-3.3413894,1
0.99788434,-0.58582181,-2.0180693,-3.5082112,-4.3788866,-4.0938812,-2.8878804,-1.5616819,-1.3910103,-0.70501895,-0.21103533,-0.10709524,-0.11991033,-0.16427489,-0.21777052,-0.26935781,-0.17386038,-0.17266095,-0.14501892,-0.12855506,-0.13924859,-0.11941561,-0.26352804,-0.34153402,-0.49479098,-0.45448864,-0.44464592,-0.65072809,-0.70219824,-0.78502329,-0.94339046,-0.96243726,-0.97435051,-1.1607267,-1.1184831,-1.1915868,-1.3239897,-1.2138892,-1.1278203,-0.97306651,-0.99332596,-0.88541937,-0.76437267,-0.58391591,-0.40755266,-0.37356933,-0.18816672,-0.007249556,-0.078864138,0.075802455,0.095404262,0.073551589,0.30208233,0.25153347,0.26099311,0.2775399,0.2462088,0.13018247,0.22302389,0.31713982,0.31638243,0.3920521,0.33238338,0.23918245,0.31645476,0.31765565,0.42665558,0.40768704,0.37336173,0.6060014,0.50983948,0.62475405,0.56316332,0.51058521,0.66926286,0.62672585,0.57395604,0.60413511,0.57552877,0.72896509,0.58551653,0.49914893,0.54465376,0.52332868,0.47127804,0.50494093,0.49954271,0.52266585,0.47264352,0.37497925,0.52537214,0.39088412,0.36127784,0.35836815,0.38086921,0.51310843,0.60491869,0.79361274,1.0007696,1.2070314,1.3062986,1.4559914,1.7036179,2.0030384,2.1137389,2.0558994,1.857193,1.8047415,1.5973333,1.1038712,0.9945241,0.45267034,-0.097675803,-0.33888535,-0.4478293,-0.41457072,-0.42191153,-0.43178028,-0.48360571,-0.46943781,-0.45290089,-0.36330268,-0.37382221,-0.40008365,-0.4460752,-0.48890905,-0.53074504,-0.39639673,-0.19525888,0.57096568,0.99129372,0.8312716,0.84730625,1.0881946,1.0213252,0.80907286,0.51391977,0.42490256,0.62096743,-1.0081563,1
-1.5163825,-3.1127839,-3.9534813,-4.5898193,-4.2356107,-3.4331434,-2.0138225,-1.4187687,-1.0406419,-0.40396656,-0.10671723,-0.068000009,-0.10423284,-0.063958984,-0.01391514,0.064048154,-0.008469159,0.047969706,0.000424448,-0.044618089,-0.060046327,0.00875658,0.056842753,-0.057457652,-0.026267275,-0.10665425,-0.12166855,-0.041046988,-0.11813513,-0.18231811,-0.20011349,-0.24870618,-0.18660489,-0.22242832,-0.28911258,-0.17406487,-0.15605042,-0.26541225,-0.20557734,-0.14996735,-0.1315783,0.005867143,0.061305898,0.10757145,0.004482834,0.1537743,0.25413252,0.22617157,0.24092628,0.21989168,0.27925387,0.2497754,0.18567461,0.14444941,0.18391815,0.12827527,0.10589829,0.21594309,0.18749511,0.21523727,0.096039433,0.24208334,0.17100245,0.16032452,0.26006908,0.080865661,0.23570273,0.28148734,0.3475848,0.38860979,0.41811335,0.45384905,0.3641492,0.41728216,0.43775804,0.38861344,0.36375505,0.31310959,0.32596392,0.39869332,0.33475906,0.31501663,0.22186109,0.3441092,0.30036755,0.26447623,0.25175689,0.21919866,0.27228669,0.19597284,0.31424001,0.14761664,0.21992899,0.30529741,0.37678025,0.75932978,0.88203766,1.1184134,1.3175547,1.5130239,1.7026943,1.9787491,2.0693509,1.9308479,1.9155431,1.7350835,1.6780416,1.4152474,1.1723293,0.87590136,0.33945755,-0.013907129,-0.28076617,-0.22993171,-0.35919729,-0.31407558,-0.34087865,-0.3316639,-0.31797507,-0.51497125,-0.4861353,-0.41605729,-0.38153523,-0.49760539,-0.43824909,-0.42107296,-0.36437414,-0.12184498,0.31143642,1.1657956,1.2242453,0.87928217,0.52210505,-0.13405193,-0.81955908,-1.2776674,-0.58305408,0.094285267,-0.3519915,-2.1094579,1
1.9891631,1.4739407,-0.57755003,-2.2949741,-3.6700154,-4.4283852,-3.6061605,-2.2459523,-1.6216524,-1.4596398,-0.35176573,0.051165082,-0.10120967,-0.023656457,0.037976617,-0.038360728,-0.12213697,-0.069272892,-0.18513678,-0.23810715,-0.13380269,-0.25295118,-0.40054476,-0.33035575,-0.29281212,-0.29761173,-0.53714086,-0.48101457,-0.57985456,-0.63498634,-0.72009551,-0.76432279,-0.80836587,-0.82382717,-0.84698003,-1.0079667,-1.0708703,-1.0281256,-1.0806295,-1.0253026,-1.0875058,-1.0235634,-0.80524326,-0.70494358,-0.63320231,-0.64793872,-0.43299673,-0.42701385,-0.21531422,-0.15736389,-0.088300134,-0.097124331,0.049816098,0.070149783,0.004483313,0.17300786,-0.097055787,-0.007316671,0.097186841,0.039990647,0.12851019,0.20229473,0.24532997,0.13796597,0.15033986,0.095819239,0.26393219,0.1466258,0.25116124,0.3465999,0.37027077,0.40712732,0.36417065,0.49609481,0.39832627,0.45783166,0.55583953,0.41037572,0.47528093,0.55719873,0.46703506,0.46166356,0.41204074,0.38593295,0.47619908,0.4951778,0.31203541,0.39934005,0.19532095,0.24826392,0.15956956,0.15230921,0.20844605,0.028339921,0.19071676,0.14400252,0.16398789,0.052193824,0.15946083,0.1150594,0.52546278,0.8149707,1.0342934,1.1617769,1.2405806,1.6186417,2.0359625,2.1472291,2.0275577,1.7631762,1.6229445,1.4896762,1.0849516,0.63418617,0.17908551,-0.32533803,-0.47497364,-0.35509219,-0.46354977,-0.3590109,-0.51930335,-0.44059187,-0.45894777,-0.44861545,-0.47275156,-0.39462197,-0.48713433,-0.5012418,-0.45334877,-0.31716974,-0.23305847,0.6212347,0.84086362,1.1113764,1.9249753,2.0231929,2.0687588,1.0292105,1.2214019,1.3845885,1
-0.14057152,-1.9219161,-3.3579518,-4.2885992,-4.2950798,-3.9601651,-2.8822607,-1.7183936,-1.5304759,-0.90525595,-0.25352657,-0.14320464,-0.12181549,-0.098969206,-0.10313122,-0.1006595,-0.11600941,-0.075155954,-0.11425322,-0.075560547,-0.15538024,-0.19322496,-0.25491891,-0.37729278,-0.36840099,-0.30808626,-0.31377514,-0.44256447,-0.53567505,-0.56535014,-0.59434863,-0.59762461,-0.62377442,-0.69402704,-0.72845838,-0.6576471,-0.70822407,-0.75318092,-0.77425858,-0.69237971,-0.62497145,-0.63972893,-0.52753102,-0.4804279,-0.39040227,-0.16804222,-0.13359377,-0.13910402,-0.022431183,-0.083820144,0.030154126,0.084219336,0.053040988,0.086505871,0.076819624,0.14066856,0.16108598,0.08552768,0.094306519,0.14794436,0.17957259,0.14276754,0.032490284,0.12579967,0.14973304,0.21013608,0.16067892,0.18924135,0.35140961,0.25339374,0.29714415,0.32159509,0.32566483,0.44437345,0.41806112,0.46350821,0.50842411,0.60742538,0.64555635,0.61426389,0.52460211,0.49669532,0.45911978,0.48909715,0.48912322,0.39418061,0.42781337,0.46517184,0.4519728,0.41243189,0.38415402,0.4712445,0.63723058,0.66994474,0.8538631,0.95958066,1.034961,1.2244042,1.3142025,1.5784721,1.7344065,1.7401886,1.6897222,1.5260893,1.4576695,1.3291723,1.139683,1.0320571,0.8016459,0.45935239,0.16456756,0.018977716,-0.046160998,-0.24924402,-0.07559172,-0.085331046,-0.13985477,-0.13368325,-0.16567787,-0.22028112,-0.10872741,-0.16471879,-0.077473797,-0.048303164,-0.044002768,-0.083667512,-0.048945352,0.41524307,0.94347859,0.85767342,0.98084915,1.125828,1.1561444,1.062551,0.92541301,0.84560452,1.0254614,0.74936778,-0.37991797,-2.4977422,1
2.9881775,0.80113255,-1.6442986,-3.3647745,-4.411786,-4.1130002,-2.8314023,-1.689047,-1.7834895,-0.62198792,0.39383759,0.25842147,0.15322839,0.031209557,0.233429,0.16668747,0.11398487,0.094101871,-0.039940595,-0.020075587,-0.1564862,-0.073294531,-0.096692341,-0.20311508,-0.3427054,-0.44470998,-0.50101303,-0.53565284,-0.66632535,-0.73333858,-0.77210912,-0.87932622,-0.81636335,-1.0637731,-1.0902583,-1.0798756,-1.2142964,-1.2198116,-1.2442145,-1.0941555,-1.1731608,-1.0272096,-1.0109591,-0.90274452,-0.79828466,-0.74967881,-0.49636115,-0.32756759,-0.1471365,-0.2246448,-0.13307621,-0.023144078,0.010902248,0.054645283,0.07875811,0.1957416,0.03571554,0.068045671,0.10334399,0.24918461,0.24683039,0.28139508,0.28385541,0.17459753,0.24935223,0.40681967,0.34727066,0.35557971,0.35970527,0.43526389,0.48192789,0.62091327,0.55436335,0.59244234,0.6644665,0.62258892,0.71264114,0.6469139,0.58796951,0.47968259,0.62989125,0.55231053,0.48924998,0.53890412,0.40566029,0.40282744,0.41899378,0.51249738,0.4547863,0.35355497,0.3518965,0.43508958,0.41143949,0.45752049,0.31659515,0.32258964,0.30357317,0.32141636,0.27861088,0.3260968,0.41512815,0.57635324,0.55168839,0.69436067,1.1077436,1.1472575,1.142257,1.4491484,1.8970775,1.7573853,1.1513823,0.86804754,0.7949977,0.70124543,0.85797841,0.81729569,0.45497648,-0.17259427,-0.52730916,-0.65745212,-0.4879681,-0.58575622,-0.43175798,-0.50025122,-0.57274549,-0.53236764,-0.65470797,-0.67143922,-0.56682652,-0.62363145,-0.47123519,-0.20718353,0.28232954,0.63010588,0.80251197,1.3934267,1.6433807,1.8988339,1.3320865,1.6388842,1
0.81326205,-0.90594063,-3.0350108,-4.3790598,-4.2261159,-3.5034174,-2.5716691,-1.8774002,-1.6311811,-1.0691955,-0.46995455,-0.44434717,-0.44966833,-0.4108604,-0.4949972,-0.44548848,-0.42542926,-0.46780395,-0.40502502,-0.51838022,-0.46692793,-0.48605319,-0.53426541,-0.54186379,-0.59136002,-0.6055206,-0.72439769,-0.73685049,-0.71721164,-0.75138144,-0.79939094,-0.80738624,-0.81563545,-0.94916916,-0.91887406,-0.92429152,-0.94116292,-0.88455503,-0.87736854,-0.74048213,-0.82016543,-0.64516755,-0.54385211,-0.47035433,-0.28294666,-0.27633928,-0.18951498,-0.10249521,0.047318286,0.059488793,0.029541484,0.11306447,0.044782966,0.077744889,0.10313879,0.096549908,0.033017478,0.11925808,0.12494683,0.14243609,0.16514007,0.20153322,0.18579743,0.1740864,0.23913477,0.30196111,0.36974244,0.45671164,0.50483347,0.47870959,0.55324188,0.57687115,0.57647821,0.5844318,0.58273561,0.71228368,0.65793712,0.66694563,0.61524382,0.64439498,0.65119075,0.61845798,0.56820364,0.51692765,0.5368744,0.49379128,0.43471714,0.53387621,0.49404038,0.48613953,0.46977078,0.44150725,0.39086377,0.41182983,0.4685167,0.46293006,0.5765113,0.84831701,0.91051339,1.0689159,1.1480243,1.3330844,1.6070892,1.7318786,1.6537363,1.5901886,1.4828153,1.3480078,1.1815325,0.99305843,0.72716308,0.40835259,0.073830125,-0.020420281,-0.14685605,-0.16811245,-0.16732376,-0.19960656,-0.15533615,-0.18509054,-0.10877283,-0.11869944,-0.28230482,-0.13034395,-0.22599088,-0.2577915,-0.18632542,-0.10572006,0.10868797,0.67540179,1.0933074,1.1176171,1.4981608,1.7534141,1.6394957,1.187775,0.94347003,1.0081115,0.74605214,-1.1522907,1
0.78011491,-1.4679019,-3.5909691,-4.705454,-3.9341331,-2.7504174,-1.7213895,-1.4669949,-0.40679265,-0.008843157,-0.1499694,-0.14696799,-0.12653081,-0.17388797,-0.24797198,-0.23283796,-0.15356067,-0.1026737,-0.16806161,-0.18012211,-0.21240421,-0.19777131,-0.34805983,-0.33175913,-0.49805643,-0.62025676,-0.6971776,-0.76337205,-0.8036909,-0.87869478,-0.89418185,-1.0649723,-1.1373311,-1.1622639,-1.2991287,-1.3477039,-1.3343985,-1.3977704,-1.3204779,-1.1988017,-1.1736863,-1.0908272,-0.98053585,-0.82816591,-0.60768222,-0.52611242,-0.382443,-0.20454227,-0.20969125,0.011034902,-0.066237155,0.02315311,0.086078395,0.073102684,0.16640119,0.14302668,0.18232058,0.1853002,0.24797592,0.31438784,0.34922703,0.27667682,0.30652119,0.31374023,0.35540264,0.3657625,0.36127785,0.49730919,0.5668224,0.52377899,0.58257011,0.569724,0.65105128,0.61416204,0.66576641,0.69208316,0.61890451,0.66624479,0.66193725,0.60963048,0.60924663,0.56655893,0.65793911,0.57558342,0.61235477,0.5974964,0.61098603,0.63058535,0.43845196,0.57170567,0.43594505,0.29454317,0.44103016,0.24733487,0.28491099,0.3254883,0.43880178,0.5584502,0.79483459,1.0987872,1.1858339,1.4148854,1.4791689,1.7229357,1.9438664,1.8684334,1.8238421,1.5301044,1.2358176,1.155389,0.86516896,0.51515784,0.075829186,-0.29746319,-0.42168076,-0.40135533,-0.35593393,-0.34892688,-0.34350551,-0.32383821,-0.26461946,-0.27535636,-0.23749666,-0.29162827,-0.21576639,-0.21090616,-0.14549219,-0.11394703,-0.15978474,0.26277197,1.1095961,1.224421,0.80148286,0.5929931,0.62477972,0.62220968,0.92178506,0.92882891,1.654463,0.90908966,1
-0.99229395,-2.3257702,-3.1498221,-3.6756853,-3.9179903,-3.8039139,-3.2704467,-2.2265763,-1.4715159,-1.1449661,-0.70422945,-0.28125144,-0.25954865,-0.26671079,-0.27384422,-0.22570595,-0.27323385,-0.37064719,-0.28425736,-0.27685287,-0.32640048,-0.25940906,-0.22685652,-0.40643694,-0.34056264,-0.2832333,-0.43484571,-0.34244673,-0.28550436,-0.42639012,-0.2968618,-0.2248005,-0.29335921,-0.31233783,-0.18731116,-0.19122445,-0.22940156,-0.22576695,-0.13320172,-0.22377399,-0.1747761,-0.2373241,-0.14686608,-0.048404718,-0.063877725,-0.031064605,0.060864591,0.146507,0.13247594,0.05848785,0.013701074,0.11600147,0.2961736,0.33346997,0.2147738,0.077590889,0.15635953,0.27202844,0.19211839,0.12623499,0.055759571,0.11874937,0.10669005,0.05725913,0.13105492,0.1348615,0.050679926,0.12308583,0.15347323,0.1155378,0.29934855,0.34461814,0.32904641,0.36083829,0.40403103,0.58123447,0.45344006,0.38272057,0.45216616,0.56036571,0.66638948,0.6911026,0.63687446,0.70062924,0.6867891,0.5421608,0.57409905,0.49185286,0.49699344,0.53139411,0.51386192,0.52500729,0.59437449,0.77672978,0.768739,0.82421824,1.0885388,1.2657702,1.3428638,1.6758096,1.9540871,2.0132927,1.8955388,1.8643087,1.8873188,1.6050712,1.435902,1.1714946,0.87131034,0.80988532,0.41354226,-0.068470926,-0.17592355,-0.17614121,-0.26258082,-0.16022829,-0.13188592,-0.1592905,-0.17737853,-0.24695387,-0.13937126,-0.16038735,-0.28465171,-0.24586413,-0.24879318,-0.11552029,-0.05139005,0.019156943,0.44537112,1.2771471,1.5305309,1.2485589,1.0841426,0.34913539,-0.45872641,-1.149748,-1.3048998,-1.2406424,-0.86811824,-1.3070739,1
-3.0064674,-3.4635843,-3.5370367,-4.6784436,-4.1813927,-3.6806029,-2.6837945,-1.1189637,-0.086109606,0.21210849,0.76326334,0.95806852,0.87665178,0.54988614,0.032596213,-0.14217792,-0.071845681,0.025793766,0.078588649,0.11220939,0.25873349,0.27900358,0.38724253,0.37312384,0.48385662,0.47394907,0.53251174,0.60205189,0.54264702,0.6466859,0.62533241,0.49130057,0.43610915,0.35770672,0.26908421,0.2125086,0.081226989,-0.063453639,-0.18429589,-0.20665462,-0.21534196,-0.36968845,-0.32628589,-0.35615305,-0.37235801,-0.28673911,-0.28430042,-0.24448767,-0.21403401,-0.1507257,-0.19520098,-0.10071108,-0.050194438,-0.09676663,-0.14223741,-0.097866633,-0.088945962,-0.097360586,-0.15831992,-0.13286551,-0.23121633,-0.25943755,-0.22210446,-0.21795036,-0.23152992,-0.3018288,-0.25674958,-0.26615468,-0.3037437,-0.25268886,-0.26905347,-0.22532685,-0.20876168,-0.28200969,-0.24408336,-0.16963388,-0.19197027,-0.15780304,-0.25343983,-0.10205195,-0.098220291,-0.12018964,-0.11919948,-0.12513289,-0.14914883,-0.1378315,-0.056505621,-0.095427655,-0.028767563,-0.11936904,-0.10351485,-0.073150297,0.003977767,-0.023179307,-0.006787358,-0.016331008,-0.002398692,0.018082304,0.044939909,-0.009139302,0.030860691,0.094446875,0.05017521,0.065310214,0.10092843,0.081434933,0.11398044,0.12855481,0.19341733,0.26630805,0.48210261,0.86536003,1.0970099,1.2480606,1.5580722,1.8603885,1.9541346,1.8320782,1.6668729,1.4167321,1.0502989,0.53026188,0.068262763,-0.014781256,0.028789886,0.043011071,0.070556217,0.058922678,0.05653265,0.12726832,0.075423743,0.18613875,0.089336707,0.37401356,0.91406131,1.2174252,1.5626377,1.8481363,1.4193367,1.4761358,1
0.19648537,-2.0742516,-4.0943882,-4.8121042,-4.2821244,-3.1629775,-2.086894,-1.6705796,-1.2871348,-0.42073667,-0.16601874,-0.27827288,-0.21430859,-0.18758008,-0.19368818,-0.17101225,-0.17214228,-0.19094908,-0.29541638,-0.27394643,-0.32151754,-0.25548423,-0.35048226,-0.4205685,-0.32710707,-0.45695821,-0.54634645,-0.51473903,-0.58715637,-0.63364648,-0.69124771,-0.75008219,-0.80586771,-0.79979482,-0.72248408,-0.75887346,-0.7930507,-0.76449778,-0.68954974,-0.61956359,-0.45808125,-0.41037505,-0.25494329,-0.17252027,-0.09894665,-0.047633074,0.070092303,0.09300641,0.050953662,0.082227184,0.18663716,0.18816431,0.12863257,0.14411049,0.18309318,0.26704227,0.14198579,0.2193573,0.25665286,0.18514929,0.24675825,0.3288992,0.4029641,0.42216288,0.44755203,0.44655092,0.62381997,0.60936534,0.72524365,0.73144978,0.78840584,0.77231545,0.88636559,0.77960265,0.79160903,0.78773982,0.62474071,0.68362642,0.68172927,0.69736186,0.60628373,0.48284295,0.50719349,0.39375157,0.50423625,0.44971628,0.36536191,0.37039146,0.37179232,0.33018047,0.2580866,0.2629556,0.17274622,0.29904184,0.25675289,0.28774061,0.45011296,0.56992546,0.78088675,0.91723152,1.0215099,1.2482242,1.4741312,1.6672643,1.7236854,1.5770044,1.504346,1.3208254,1.1634217,0.97015323,0.57403897,0.47061003,0.22925731,-0.47034525,-0.46521446,-0.62018896,-0.5568679,-0.62208445,-0.52987919,-0.54863327,-0.60781366,-0.54802321,-0.54853853,-0.52443011,-0.57835462,-0.48611937,-0.48430224,-0.52994005,-0.45179625,-0.20929914,0.34969945,0.88885832,0.94740025,1.296381,1.5954925,1.5564318,1.2207522,0.61749079,0.79946611,0.34234565,1
0.92109691,-0.68053669,-2.3903373,-3.1484365,-4.0214968,-3.9089879,-2.6986279,-1.9642801,-1.6781089,-0.7248437,-0.16235578,-0.38296789,-0.25139649,-0.21378531,-0.28303451,-0.35995313,-0.33733784,-0.41185928,-0.35619705,-0.44041802,-0.38145652,-0.49890859,-0.51434239,-0.61672374,-0.58272393,-0.50749187,-0.61109097,-0.81186253,-0.7794135,-0.83081397,-0.9662707,-0.82638135,-0.86876624,-0.95568454,-1.1487538,-1.1665447,-1.0896835,-1.0124518,-0.95971125,-0.78180577,-0.85202257,-0.72336914,-0.67114156,-0.56019851,-0.40232943,-0.30400776,-0.07802143,-0.14238289,-0.14737885,-0.053584968,0.036914744,-0.079094865,-0.051747099,-0.011802258,0.11021034,0.10809949,0.25110516,0.12969176,0.16088645,0.088805389,0.11193906,0.27356072,0.32637707,0.20552198,0.34423639,0.43206193,0.37256993,0.40197911,0.42992617,0.46875985,0.50481219,0.67038764,0.65097384,0.76393336,0.69293992,0.66703604,0.78234602,0.68367077,0.71072469,0.68499392,0.77931427,0.64639874,0.665906,0.60135165,0.54056222,0.53310304,0.43427171,0.43597118,0.39156675,0.43234907,0.55525452,0.56010204,0.54129503,0.48239146,0.30850966,0.34324941,0.45055495,0.39826722,0.40056811,0.36983819,0.36527881,0.65184117,1.0071797,1.289614,1.3545369,1.4686881,1.6620969,2.110391,2.3468152,2.144473,2.115814,1.8055186,1.5479098,1.3970174,1.1261978,0.38655698,-0.16048752,-0.35208107,-0.39674663,-0.33328025,-0.3729132,-0.36668044,-0.3001477,-0.34286824,-0.25147344,-0.31771655,-0.3748596,-0.11971987,-0.26581824,-0.19917425,-0.14347983,0.095774741,1.1584007,1.5926302,1.0170082,1.1632897,0.78569219,-0.024698213,-0.97443391,-0.74960798,1
0.22599959,-1.7829031,-3.3312624,-4.4765647,-4.2893354,-3.5720668,-2.4022713,-1.6199104,-1.5360572,-0.88353828,-0.40278002,-0.4156461,-0.47525442,-0.4386455,-0.33801745,-0.35778722,-0.42719838,-0.33376945,-0.39742443,-0.4279566,-0.3948166,-0.41345543,-0.31340598,-0.43855836,-0.53741973,-0.47554348,-0.47578893,-0.53140848,-0.55601286,-0.60975078,-0.54448449,-0.6241511,-0.64697099,-0.69117865,-0.75924309,-0.71149726,-0.7178893,-0.7423229,-0.73665619,-0.62982968,-0.58506995,-0.62876739,-0.52579369,-0.37898194,-0.37958609,-0.29296789,-0.23163533,-0.24374348,-0.086455645,-0.086756946,-0.006119382,0.12241495,0.052233273,0.023945289,0.025807361,0.076633995,-0.000922453,0.076614932,0.11391366,0.12077693,0.071776156,0.16115229,0.10576892,0.11788522,0.22266063,0.17211413,0.19075968,0.32042473,0.38192142,0.37572433,0.43564813,0.451699,0.47839072,0.6443947,0.64992491,0.64889244,0.74957338,0.73978149,0.7063372,0.73332869,0.65858081,0.71455597,0.6916517,0.62504421,0.5405104,0.54527893,0.55847089,0.51528498,0.45365269,0.53113348,0.47580797,0.45521164,0.54774089,0.63537897,0.81022648,0.97483639,1.1168476,1.2126742,1.380202,1.5133349,1.7867349,1.8946886,1.8895552,1.7893261,1.5597456,1.5230773,1.284403,1.0638107,0.80644413,0.49131873,0.005599926,-0.22792731,-0.24617528,-0.27391245,-0.22780728,-0.3206865,-0.28791889,-0.22649494,-0.233191,-0.23017506,-0.22240487,-0.2236327,-0.20455337,-0.22899592,-0.21837569,-0.12612294,-0.067666948,0.12268367,0.58312637,1.0514318,0.81548314,0.71559122,0.82331152,0.6853992,0.6241366,0.75894377,1.3265656,1.5098745,0.62799989,-1.4205599,1
0.023778917,-1.7692686,-3.2605537,-3.8211006,-3.8696567,-3.8461039,-3.2414111,-1.9671278,-1.0004108,-0.83505211,-0.36532969,0.008455131,0.052182696,0.032824997,0.054332887,0.26212792,0.33847877,0.24066199,-0.041431934,-0.079667301,0.097938305,0.061762079,0.01260183,0.020875653,-0.026136032,-0.13151725,-0.25697359,-0.23993879,-0.25980664,-0.27374616,-0.26560074,-0.35776282,-0.37239035,-0.4265946,-0.45411602,-0.34640084,-0.39732997,-0.4243579,-0.299052,-0.36719866,-0.2568899,-0.22474514,-0.21135737,-0.12095121,-0.027152715,0.075257336,0.081454452,0.21434098,0.10564936,0.26564836,0.34844144,0.32675295,0.27920987,0.37656038,0.42981162,0.33310191,0.30214195,0.35505694,0.32762793,0.29947603,0.3729087,0.2545828,0.29509833,0.34796428,0.3148423,0.2936799,0.38639763,0.39359678,0.31567943,0.2759735,0.45617811,0.37920567,0.52864476,0.59324088,0.56481321,0.6040334,0.5548339,0.62264063,0.53244948,0.63541373,0.53897679,0.52131135,0.53906241,0.54687011,0.53840914,0.42805637,0.39389229,0.4026684,0.41995509,0.29010436,0.40756536,0.43503548,0.45632945,0.62003433,0.73428417,0.86324924,1.1196691,1.2028239,1.7192827,2.0156577,2.2299614,2.2709198,2.0953494,1.805488,1.6379111,1.3957913,1.0252157,0.70830285,0.21306396,-0.18148071,-0.43335486,-0.55306763,-0.65488301,-0.74988982,-0.79949541,-0.74616546,-0.87779856,-0.84663076,-0.74130173,-0.81963436,-0.78210728,-0.81870391,-0.81874548,-0.83557811,-0.83233602,-0.81362388,-0.67136152,-0.35417695,0.36033723,0.58385198,0.50253301,0.80616676,0.62614587,0.56599883,0.18635504,-0.17013099,0.12709001,0.60480833,-0.12282873,-2.5268305,1
0.91735736,-1.2658237,-3.2676625,-4.2877658,-5.1909356,-4.2330204,-2.5132575,-1.8773309,-1.3779222,-0.043451896,0.19114064,0.093086858,0.16940234,0.16211081,0.22574341,0.14286795,0.15196327,0.16909295,-0.008757647,-0.027548932,-0.10388189,-0.23454581,-0.11768983,-0.21747255,-0.19362608,-0.31632183,-0.44358598,-0.50367813,-0.4255409,-0.59006935,-0.56664975,-0.58952969,-0.6370975,-0.89213987,-0.83608969,-0.89240997,-0.85935036,-0.85268424,-0.81714351,-0.72379295,-0.81502333,-0.66417936,-0.55432809,-0.54080691,-0.50919409,-0.3122003,-0.18666473,-0.23607708,-0.069653182,-0.17811265,0.041697737,-0.14635571,-0.097459804,0.022465394,-0.016666167,-0.081585289,-0.10334797,-0.046050283,0.10978273,0.11304252,0.001345719,0.089481503,0.08482192,0.018572223,0.17164823,0.25371724,0.17749085,0.3765592,0.33831064,0.41663252,0.48995864,0.52493801,0.63398596,0.5452733,0.72145684,0.64012444,0.62307373,0.65404857,0.52712923,0.61188668,0.66214634,0.6104541,0.5093771,0.50228496,0.31796224,0.35411269,0.21996721,0.43995213,0.4327086,0.40903427,0.32109966,0.32202362,0.34760779,0.254711,0.24693491,0.280134,0.31066247,0.20226932,0.17470179,0.25933488,0.38609711,0.33319001,0.39398173,0.60454155,0.91729517,0.96351998,1.1940637,1.5287295,1.6800537,1.3724923,1.0526699,0.78889972,0.68471914,0.8040217,0.86503252,0.54943937,-0.084302029,-0.3196382,-0.25043042,-0.23307132,-0.34731071,-0.36794797,-0.29630534,-0.41663597,-0.46447081,-0.20572794,-0.42377016,-0.25321616,-0.23961767,-0.14756276,-0.094952071,0.67148308,1.3839413,1.7108272,1.8228936,1.8353268,1.8275191,0.86835244,0.65038973,1.1322725,1
